#XDI/1.1  GSE/2.0
# Column.1: energy eV
# Column.2: itrans
# Column.3: i0
# Element.symbol:  Pb
# Element.edge:  L3
# Mono.d_spacing:  3.13477
# Mono.name: Si 111
# Sample.formula: Pb
# Sample.name: Pb
# Sample.prep: metal foil
# Sample.temperature: room temperature
# Facility.Name:  APS
# Beamline.Name:  13-ID-E
# Beamline.xray_source:  3.6cm undulator
# Beamline.Storage_Ring_Current: 102.1
# Beamline.I0: He, 200 cm
# Beamline.I1: N2,  10 cm
# Scan.start_time: 2016-07-05 17:30:04
# Scan.end_time: 2016-07-05 17:37:11
# ScanParameters.Start: Scan.Member: Value
# ScanParameters.ScanType: xafs
# ScanParameters.E0: 13035.000
# ScanParameters.Legend:  Start, Stop, Step, K-space, Time
# ScanParameters.Region1:   -100.000,   -10.000,     5.000  False  0.50
# ScanParameters.Region2:    -10.000,    30.000,     0.200  False  0.50
# ScanParameters.Region3:      2.806,    13.000,     0.050  True  0.50
# ScanParameters.End: here
#-------------------------
#  energy  itrans  i0
   12935.000     58822.65     95059.00 
   12940.000     59423.65     95904.00 
   12945.000     58934.65     95106.00 
   12950.000     58408.65     94259.00 
   12955.000     59382.65     95830.00 
   12960.000     59307.65     95876.00 
   12965.000     59260.65     95871.00 
   12970.000     59175.65     95727.00 
   12975.000     59178.65     95768.00 
   12980.000     58967.65     95247.00 
   12985.000     59061.65     95415.00 
   12990.000     59101.65     95563.00 
   12995.000     58400.65     94449.00 
   13000.000     58433.65     94649.00 
   13005.000     58200.65     94794.00 
   13010.000     57752.65     94819.00 
   13015.000     56995.65     94550.00 
   13020.000     56044.65     94464.00 
   13025.000     54321.65     94460.00 
   13025.200     54030.65     94139.00 
   13025.400     53884.65     94078.00 
   13025.600     53798.65     94056.00 
   13025.800     53639.65     94004.00 
   13026.000     53444.65     93864.00 
   13026.200     53371.65     93916.00 
   13026.400     53311.65     94044.00 
   13026.600     53090.65     93904.00 
   13026.800     52837.65     93671.00 
   13027.000     52758.65     93776.00 
   13027.200     52681.65     93882.00 
   13027.400     52549.65     93896.00 
   13027.600     52424.65     93926.00 
   13027.800     52219.65     93838.00 
   13028.000     52086.65     93899.00 
   13028.200     51929.65     93940.00 
   13028.400     51696.65     93870.00 
   13028.600     51599.65     94026.00 
   13028.800     51393.65     93984.00 
   13029.000     51160.65     93997.00 
   13029.200     50989.65     94043.00 
   13029.400     50658.65     93860.00 
   13029.600     50391.65     93794.00 
   13029.800     50120.65     93786.00 
   13030.000     49860.65     93829.00 
   13030.200     49548.65     93704.00 
   13030.400     49403.65     94048.00 
   13030.600     48985.65     93832.00 
   13030.800     48559.65     93675.00 
   13031.000     48271.65     93744.00 
   13031.200     47920.65     93818.00 
   13031.400     47517.65     93797.00 
   13031.600     47157.65     93843.00 
   13031.800     46612.65     93623.00 
   13032.000     46186.65     93680.00 
   13032.200     45778.65     93769.00 
   13032.400     45291.65     93765.00 
   13032.600     44771.65     93779.00 
   13032.800     44254.65     93781.00 
   13033.000     43714.65     93715.00 
   13033.200     43165.65     93734.00 
   13033.400     41531.65     91385.00 
   13033.600     42253.65     94174.00 
   13033.800     41667.65     94175.00 
   13034.000     41078.65     94168.00 
   13034.200     40496.65     94068.00 
   13034.400     39986.65     94257.00 
   13034.600     39352.65     94192.00 
   13034.800     38842.65     94281.00 
   13035.000     38234.65     94167.00 
   13035.200     37629.65     94072.00 
   13035.400     37132.65     94228.00 
   13035.600     36617.65     94262.00 
   13035.800     36055.65     94246.00 
   13036.000     35405.65     93952.00 
   13036.200     34954.65     94072.00 
   13036.400     34475.65     94213.00 
   13036.600     33907.65     94166.00 
   13036.800     33433.65     94257.00 
   13037.000     32936.65     94421.00 
   13037.200     32413.65     94408.00 
   13037.400     31922.65     94475.00 
   13037.600     31358.65     94421.00 
   13037.800     30845.65     94560.00 
   13038.000     30357.65     94701.00 
   13038.200     29685.65     94397.00 
   13038.400     29098.65     94375.00 
   13038.600     28516.65     94386.00 
   13038.800     27956.65     94381.00 
   13039.000     27272.65     94165.00 
   13039.200     26664.65     94108.00 
   13039.400     26077.65     94094.00 
   13039.600     25447.65     94031.00 
   13039.800     24846.65     94037.00 
   13040.000     24326.65     94209.00 
   13040.200     23714.65     94206.00 
   13040.400     23110.65     94152.00 
   13040.600     22567.65     94203.00 
   13040.800     22020.65     94281.00 
   13041.000     21449.65     94168.00 
   13041.200     20954.65     94229.00 
   13041.400     20435.65     94187.00 
   13041.600     19913.65     94073.00 
   13041.800     19509.65     94274.00 
   13042.000     19021.65     94035.00 
   13042.200     18626.65     94189.00 
   13042.400     18249.65     94256.00 
   13042.600     17852.65     94200.00 
   13042.800     17477.65     94135.00 
   13043.000     17146.65     94119.00 
   13043.200     16818.65     94116.00 
   13043.400     16472.65     93955.00 
   13043.600     16224.65     94145.00 
   13043.800     15949.65     94217.00 
   13044.000     15702.65     94380.00 
   13044.200     15435.65     94257.00 
   13044.400     15177.65     94180.00 
   13044.600     14954.65     94311.00 
   13044.800     14738.65     94230.00 
   13045.000     14553.65     94442.00 
   13045.200     14352.65     94447.00 
   13045.400     14212.65     94632.00 
   13045.600     14035.65     94653.00 
   13045.800     13879.65     94638.00 
   13046.000     13736.65     94622.00 
   13046.200     13619.65     94745.00 
   13046.400     13510.65     94831.00 
   13046.600     13389.65     94639.00 
   13046.800     13290.65     94586.00 
   13047.000     13214.65     94643.00 
   13047.200     13144.65     94601.00 
   13047.400     13081.65     94578.00 
   13047.600     13021.65     94522.00 
   13047.800     13006.65     94641.00 
   13048.000     12959.65     94507.00 
   13048.200     12935.65     94461.00 
   13048.400     12936.65     94558.00 
   13048.600     12927.65     94523.00 
   13048.800     12911.65     94417.00 
   13049.000     12947.65     94572.00 
   13049.200     12943.65     94478.00 
   13049.400     12951.65     94436.00 
   13049.600     12951.65     94335.00 
   13049.800     12975.65     94372.00 
   13050.000     12993.65     94347.00 
   13050.200     13021.65     94385.00 
   13050.400     13033.65     94312.00 
   13050.600     13046.65     94271.00 
   13050.800     13082.65     94403.00 
   13051.000     13077.65     94226.00 
   13051.200     13122.65     94420.00 
   13051.400     13112.65     94259.00 
   13051.600     13143.65     94324.00 
   13051.800     13125.65     94139.00 
   13052.000     13147.65     94271.00 
   13052.200     13148.65     94191.00 
   13052.400     13159.65     94264.00 
   13052.600     13115.65     93976.00 
   13052.800     13116.65     94008.00 
   13053.000     13118.65     94124.00 
   13053.200     13115.65     94153.00 
   13053.400     13103.65     94185.00 
   13053.600     13110.65     94336.00 
   13053.800     13126.65     94586.00 
   13054.000     13082.65     94449.00 
   13054.200     13047.65     94433.00 
   13054.400     13010.65     94406.00 
   13054.600     12976.65     94444.00 
   13054.800     12945.65     94559.00 
   13055.000     12881.65     94430.00 
   13055.200     12834.65     94429.00 
   13055.400     12772.65     94454.00 
   13055.600     12697.65     94311.00 
   13055.800     12609.65     94216.00 
   13056.000     12553.65     94313.00 
   13056.200     12456.65     94112.00 
   13056.400     12401.65     94340.00 
   13056.600     12305.65     94226.00 
   13056.800     12230.65     94307.00 
   13057.000     12122.65     94180.00 
   13057.200     12020.65     94022.00 
   13057.400     11929.65     94055.00 
   13057.600     11843.65     94138.00 
   13057.800     11748.65     94102.00 
   13058.000     11643.65     94008.00 
   13058.200     11537.65     93917.00 
   13058.400     11454.65     93961.00 
   13058.600     11375.65     94043.00 
   13058.800     11292.65     94142.00 
   13059.000     11218.65     94128.00 
   13059.200     11130.65     94088.00 
   13059.400     11054.65     94023.00 
   13059.600     10990.65     94097.00 
   13059.800     10932.65     94155.00 
   13060.000     10852.65     93912.00 
   13060.200     10824.65     94139.00 
   13060.400     10773.65     94134.00 
   13060.600     10736.65     94152.00 
   13060.800     10681.65     94002.00 
   13061.000     10647.65     93971.00 
   13061.200     10614.65     93922.00 
   13061.400     10582.65     93808.00 
   13061.600     10579.65     93905.00 
   13061.800     10558.65     93857.00 
   13062.000     10546.65     93818.00 
   13062.200     10533.65     93724.00 
   13062.400     10517.65     93543.00 
   13062.600     10522.65     93535.00 
   13062.800     10530.65     93561.00 
   13063.000     10525.65     93389.00 
   13063.200     10534.65     93405.00 
   13063.400     10553.65     93429.00 
   13063.600     10572.65     93394.00 
   13063.800     10571.65     93241.00 
   13064.000     10604.65     93379.00 
   13064.200     10627.65     93351.00 
   13064.400     10649.65     93371.00 
   13064.600     10666.65     93319.00 
   13064.800     10675.65     93179.00 
   13065.000     10712.65     93270.00 
   13066.082     10875.65     93359.00 
   13067.184     11002.65     93187.00 
   13068.306     11101.65     93207.00 
   13069.447     11141.65     93151.00 
   13070.607     11150.65     93220.00 
   13071.787     11129.65     93200.00 
   13072.985     11101.65     93153.00 
   13074.203     11088.65     92977.00 
   13075.440     11089.65     93076.00 
   13076.696     11077.65     93044.00 
   13077.972     11011.65     92859.00 
   13079.266     10937.65     92901.00 
   13080.580     10811.65     92782.00 
   13081.914     10428.65     90572.00 
   13083.266     10573.65     92987.00 
   13084.637     10431.65     92884.00 
   13086.028     10371.65     93052.00 
   13087.438     10359.65     93053.00 
   13088.867     10339.65     92825.00 
   13090.316     10412.65     92960.00 
   13091.783     10497.65     92902.00 
   13093.270     10575.65     92840.00 
   13094.776     10629.65     92803.00 
   13096.302     10685.65     92761.00 
   13097.846     10751.65     93054.00 
   13099.410     10785.65     92908.00 
   13100.993     10838.65     92960.00 
   13102.595     10873.65     92870.00 
   13104.216     10854.65     92585.00 
   13105.857     10820.65     92412.00 
   13107.517     10785.65     92289.00 
   13109.196     10782.65     92502.00 
   13110.894     10719.65     92318.00 
   13112.611     10622.65     91938.00 
   13114.348     10563.65     91812.00 
   13116.104     10530.65     91863.00 
   13117.879     10499.65     91793.00 
   13119.673     10488.65     91711.00 
   13121.487     10516.65     91728.00 
   13123.319     10601.65     92124.00 
   13125.171     10632.65     91847.00 
   13127.042     10672.65     91654.00 
   13128.933     10721.65     91651.00 
   13130.842     10762.65     91690.00 
   13132.771     10761.65     91508.00 
   13134.719     10802.65     91680.00 
   13136.686     10816.65     91717.00 
   13138.673     10828.65     91791.00 
   13140.679     10820.65     91706.00 
   13142.703     10862.65     91947.00 
   13144.748     10841.65     91709.00 
   13146.811     10841.65     91685.00 
   13148.893     10834.65     91604.00 
   13150.995     10853.65     91743.00 
   13153.116     10859.65     91929.00 
   13155.256     10817.65     91588.00 
   13157.416     10819.65     91617.00 
   13159.594     10804.65     91443.00 
   13161.792     10826.65     91669.00 
   13164.009     10837.65     91676.00 
   13166.245     10834.65     91436.00 
   13168.501     10855.65     91482.00 
   13170.775     10855.65     91333.00 
   13173.069     10858.65     91234.00 
   13175.382     10824.65     90913.00 
   13177.715     10866.65     91241.00 
   13180.066     10881.65     91323.00 
   13182.437     10888.65     91331.00 
   13184.827     10884.65     91235.00 
   13187.236     10895.65     91194.00 
   13189.665     10937.65     91348.00 
   13192.112     10921.65     91106.00 
   13194.579     10899.65     90731.00 
   13197.065     10912.65     90624.00 
   13199.570     10883.65     90273.00 
   13202.095     10908.65     90361.00 
   13204.639     10910.65     90308.00 
   13207.201     10925.65     90320.00 
   13209.784     10918.65     90181.00 
   13212.385     10612.65     87569.00 
   13215.006     10928.65     90241.00 
   13217.645     10956.65     90368.00 
   13220.304     10969.65     90507.00 
   13222.982     10965.65     90518.00 
   13225.680     10930.65     90259.00 
   13228.397     10924.65     90117.00 
   13231.132     10931.65     90136.00 
   13233.887     10931.65     90397.00 
   13236.662     10958.65     90530.00 
   13239.455     10969.65     90441.00 
   13242.268     10969.65     90210.00 
   13245.100     11040.65     90686.00 
   13247.951     11040.65     90564.00 
   13250.821     11042.65     90556.00 
   13253.711     11053.65     90542.00 
   13256.620     11104.65     90823.00 
   13259.548     11141.65     90872.00 
   13262.495     11156.65     90911.00 
   13265.461     11164.65     90835.00 
   13268.447     11185.65     90923.00 
   13271.452     11185.65     90898.00 
   13274.476     11166.65     90679.00 
   13277.519     11147.65     90571.00 
   13280.582     11139.65     90471.00 
   13283.664     11128.65     90413.00 
   13286.764     11158.65     90589.00 
   13289.885     11158.65     90552.00 
   13293.024     11151.65     90312.00 
   13296.183     11184.65     90441.00 
   13299.360     11171.65     90155.00 
   13302.557     11209.65     90368.00 
   13305.774     11200.65     90049.00 
   13309.009     11242.65     90165.00 
   13312.264     11258.65     90086.00 
   13315.538     11250.65     89975.00 
   13318.831     11176.65     89303.00 
   13322.143     11223.65     89522.00 
   13325.475     11174.65     89100.00 
   13328.825     11135.65     88678.00 
   13332.195     11148.65     88662.00 
   13335.584     11164.65     88900.00 
   13338.993     11157.65     88881.00 
   13342.420     11174.65     88821.00 
   13345.867     11199.65     88901.00 
   13349.333     11241.65     89086.00 
   13352.819     11260.65     89020.00 
   13356.323     11318.65     89244.00 
   13359.847     11284.65     88797.00 
   13363.390     11357.65     89137.00 
   13366.952     11365.65     89072.00 
   13370.533     11358.65     88879.00 
   13374.134     11376.65     88999.00 
   13377.753     11441.65     89354.00 
   13381.392     11474.65     89347.00 
   13385.050     11491.65     89207.00 
   13388.728     11495.65     89038.00 
   13392.425     11501.65     88945.00 
   13396.140     11535.65     89089.00 
   13399.875     11547.65     89150.00 
   13403.630     11564.65     89013.00 
   13407.403     11534.65     88689.00 
   13411.196     11541.65     88598.00 
   13415.008     11563.65     88501.00 
   13418.839     11516.65     88016.00 
   13422.689     11384.65     86916.00 
   13426.559     11425.65     87004.00 
   13430.448     11381.65     86476.00 
   13434.356     11483.65     87070.00 
   13438.283     11506.65     87164.00 
   13442.229     11484.65     87044.00 
   13446.195     11511.65     87271.00 
   13450.180     11602.65     87649.00 
   13454.184     11612.65     87622.00 
   13458.207     11667.65     87832.00 
   13462.250     11734.65     87996.00 
   13466.311     11736.65     87863.00 
   13470.392     11792.65     88014.00 
   13474.492     11804.65     87938.00 
   13478.612     11834.65     87896.00 
   13482.750     11875.65     87922.00 
   13486.908     11877.65     87798.00 
   13491.085     11871.65     87637.00 
   13495.281     11870.65     87466.00 
   13499.497     11895.65     87556.00 
   13503.731     11872.65     87256.00 
   13507.985     11891.65     87283.00 
   13512.258     11846.65     86839.00 
   13516.551     11745.65     86040.00 
   13520.862     11911.65     87136.00 
   13525.193     11881.65     86865.00 
   13529.543     11858.65     86710.00 
   13533.912     11926.65     87263.00 
   13538.300     11916.65     87110.00 
   13542.708     11896.65     87031.00 
   13547.135     11887.65     86887.00 
   13551.581     11718.65     85370.00 
   13556.046     11967.65     86983.00 
   13560.530     11980.65     86725.00 
   13565.034     11702.65     84413.00 
   13569.557     12042.65     86527.00 
   13574.099     12079.65     86579.00 
   13578.660     12000.65     85839.00 
   13583.241     12047.65     86015.00 
   13587.841     12155.65     86717.00 
   13592.460     12188.65     86563.00 
   13597.098     12222.65     86667.00 
   13601.755     12228.65     86436.00 
   13606.432     12242.65     86257.00 
   13611.128     12251.65     86123.00 
   13615.843     12292.65     86180.00 
   13620.577     12198.65     85360.00 
   13625.330     12241.65     85505.00 
   13630.103     12251.65     85399.00 
   13634.895     12238.65     85089.00 
   13639.706     12159.65     84391.00 
   13644.536     12089.65     83702.00 
   13649.386     12169.65     84027.00 
   13654.255     12231.65     84250.00 
   13659.143     12213.65     83944.00 
   13664.050     12260.65     84134.00 
   13668.976     12335.65     84510.00 
   13673.922     12368.65     84685.00 
   13678.887     12448.65     84999.00 
