#XDI/1.1  GSE/2.0
# Column.1: energy eV
# Column.2: itrans
# Column.3: i0
# Element.symbol:  Pb
# Element.edge:  L2
# Mono.d_spacing:  3.13477
# Mono.name: Si 111
# Sample.formula: Pb
# Sample.name: Pb
# Sample.prep: metal foil
# Sample.temperature: room temperature
# Facility.Name:  APS
# Beamline.Name:  13-ID-E
# Beamline.xray_source:  3.6cm undulator
# Beamline.Storage_Ring_Current: 102.1
# Beamline.I0: He,  20 cm
# Beamline.I1: N2,  10 cm
# Scan.start_time: 2016-07-05 17:40:57
# Scan.end_time: 2016-07-05 17:47:22
# ScanParameters.Start: Scan.Member: Value
# ScanParameters.ScanType: xafs
# ScanParameters.E0: 15200.000
# ScanParameters.Legend:  Start, Stop, Step, K-space, Time
# ScanParameters.Region1:   -100.000,   -10.000,     5.000  False  0.50
# ScanParameters.Region2:    -10.000,    30.000,     0.200  False  0.50
# ScanParameters.Region3:      2.806,    13.000,     0.050  True  0.50
# ScanParameters.End: here
#-------------------------
#  energy  itrans  i0
   15100.000     99768.60     83182.00
   15105.000     99511.60     82889.00
   15110.000     98473.60     81998.00
   15115.000     98100.60     81557.00
   15120.000     98480.60     81719.00
   15125.000     99058.60     82056.00
   15130.000    100003.60     82585.00
   15135.000    100123.60     82526.00
   15140.000    100083.60     82371.00
   15145.000     98870.60     81213.00
   15150.000     97845.60     80242.00
   15155.000     99043.60     81248.00
   15160.000     97976.60     80280.00
   15165.000    101408.60     83183.00
   15170.000    101786.60     83532.00
   15175.000    101697.60     83480.00
   15180.000    101339.60     83361.00
   15185.000    100959.60     83562.00
   15190.000     99486.60     83439.00
   15190.200     99538.60     83535.00
   15190.400     99258.60     83394.00
   15190.600     99117.60     83371.00
   15190.800     99006.60     83307.00
   15191.000     98835.60     83326.00
   15191.200     98586.60     83185.00
   15191.400     98521.60     83217.00
   15191.600     98421.60     83231.00
   15191.800     98375.60     83302.00
   15192.000     98090.60     83179.00
   15192.200     98030.60     83242.00
   15192.400     97740.60     83137.00
   15192.600     97895.60     83370.00
   15192.800     97584.60     83228.00
   15193.000     97492.60     83291.00
   15193.200     97130.60     83140.00
   15193.400     97128.60     83320.00
   15193.600     96944.60     83349.00
   15193.800     96828.60     83422.00
   15194.000     96392.60     83225.00
   15194.200     96399.60     83427.00
   15194.400     96124.60     83409.00
   15194.600     95561.60     83172.00
   15194.800     95351.60     83233.00
   15195.000     94949.60     83141.00
   15195.200     94709.60     83233.00
   15195.400     94426.60     83249.00
   15195.600     94200.60     83391.00
   15195.800     93683.60     83274.00
   15196.000     93157.60     83163.00
   15196.200     92927.60     83323.00
   15196.400     92424.60     83308.00
   15196.600     91984.60     83317.00
   15196.800     91459.60     83333.00
   15197.000     91016.60     83356.00
   15197.200     90525.60     83358.00
   15197.400     89915.60     83291.00
   15197.600     89424.60     83372.00
   15197.800     88938.60     83353.00
   15198.000     88275.60     83266.00
   15198.200     87644.60     83209.00
   15198.400     87222.60     83339.00
   15198.600     86653.60     83335.00
   15198.800     86092.60     83298.00
   15199.000     85486.60     83243.00
   15199.200     84959.60     83270.00
   15199.400     84512.60     83339.00
   15199.600     83906.60     83321.00
   15199.800     83245.60     83179.00
   15200.000     82868.60     83299.00
   15200.200     82406.60     83326.00
   15200.400     81770.60     83250.00
   15200.600     81321.60     83285.00
   15200.800     80653.60     83157.00
   15201.000     80071.60     83097.00
   15201.200     79606.60     83152.00
   15201.400     79127.60     83225.00
   15201.600     78650.60     83299.00
   15201.800     78155.60     83350.00
   15202.000     77713.60     83522.00
   15202.200     76995.60     83411.00
   15202.400     76584.60     83592.00
   15202.600     75937.60     83627.00
   15202.800     75079.60     83391.00
   15203.000     74412.60     83417.00
   15203.200     73804.60     83547.00
   15203.400     72995.60     83501.00
   15203.600     72238.60     83496.00
   15203.800     71468.60     83519.00
   15204.000     70800.60     83610.00
   15204.200     69986.60     83570.00
   15204.400     69158.60     83517.00
   15204.600     68408.60     83555.00
   15204.800     67542.60     83483.00
   15205.000     66905.60     83635.00
   15205.200     66069.60     83564.00
   15205.400     65216.60     83449.00
   15205.600     64492.60     83446.00
   15205.800     63885.60     83485.00
   15206.000     63159.60     83448.00
   15206.200     62426.60     83370.00
   15206.400     61783.60     83432.00
   15206.600     61181.60     83397.00
   15206.800     60623.60     83431.00
   15207.000     59883.60     83285.00
   15207.200     59436.60     83457.00
   15207.400     58884.60     83382.00
   15207.600     58355.60     83394.00
   15207.800     57867.60     83439.00
   15208.000     57311.60     83341.00
   15208.200     56850.60     83350.00
   15208.400     56452.60     83393.00
   15208.600     55944.60     83269.00
   15208.800     55520.60     83263.00
   15209.000     55146.60     83265.00
   15209.200     54798.60     83275.00
   15209.400     54420.60     83195.00
   15209.600     54111.60     83232.00
   15209.800     53799.60     83144.00
   15210.000     53472.60     83093.00
   15210.200     53282.60     83137.00
   15210.400     53137.60     83279.00
   15210.600     52897.60     83219.00
   15210.800     52666.60     83168.00
   15211.000     52509.60     83148.00
   15211.200     52399.60     83098.00
   15211.400     52256.60     83016.00
   15211.600     52219.60     83151.00
   15211.800     52167.60     83180.00
   15212.000     52134.60     83170.00
   15212.200     52097.60     83100.00
   15212.400     52040.60     83106.00
   15212.600     52063.60     83104.00
   15212.800     52021.60     83052.00
   15213.000     51997.60     82979.00
   15213.200     52009.60     83003.00
   15213.400     51964.60     82904.00
   15213.600     52012.60     82907.00
   15213.800     52079.60     82964.00
   15214.000     52186.60     83060.00
   15214.200     52145.60     82953.00
   15214.400     52132.60     82877.00
   15214.600     52106.60     82780.00
   15214.800     52190.60     82798.00
   15215.000     52315.60     82943.00
   15215.200     52276.60     82843.00
   15215.400     52261.60     82856.00
   15215.600     50677.60     80295.00
   15215.800     52541.60     83241.00
   15216.000     52616.60     83314.00
   15216.200     52468.60     83123.00
   15216.400     52576.60     83302.00
   15216.600     52585.60     83285.00
   15216.800     52549.60     83253.00
   15217.000     52589.60     83322.00
   15217.200     52521.60     83251.00
   15217.400     52625.60     83507.00
   15217.600     52501.60     83375.00
   15217.800     52413.60     83321.00
   15218.000     52344.60     83250.00
   15218.200     52244.60     83185.00
   15218.400     52216.60     83220.00
   15218.600     52121.60     83201.00
   15218.800     52064.60     83238.00
   15219.000     51941.60     83154.00
   15219.200     51810.60     83148.00
   15219.400     51671.60     83066.00
   15219.600     51601.60     83138.00
   15219.800     51465.60     83101.00
   15220.000     51299.60     83094.00
   15220.200     51144.60     83042.00
   15220.400     51002.60     83053.00
   15220.600     50814.60     82985.00
   15220.800     50675.60     83028.00
   15221.000     50541.60     83102.00
   15221.200     50386.60     83137.00
   15221.400     50176.60     83073.00
   15221.600     49987.60     83042.00
   15221.800     49858.60     83132.00
   15222.000     49665.60     83123.00
   15222.200     49406.60     83003.00
   15222.400     49127.60     82846.00
   15222.600     48926.60     82753.00
   15222.800     48770.60     82801.00
   15223.000     48601.60     82739.00
   15223.200     48437.60     82741.00
   15223.400     48291.60     82780.00
   15223.600     48190.60     82791.00
   15223.800     48098.60     82879.00
   15224.000     47931.60     82735.00
   15224.200     47846.60     82772.00
   15224.400     47743.60     82730.00
   15224.600     47564.60     82596.00
   15224.800     47570.60     82698.00
   15225.000     47566.60     82780.00
   15225.200     47535.60     82748.00
   15225.400     47475.60     82691.00
   15225.600     47481.60     82635.00
   15225.800     47500.60     82709.00
   15226.000     47490.60     82722.00
   15226.200     47507.60     82735.00
   15226.400     47472.60     82604.00
   15226.600     47454.60     82602.00
   15226.800     47453.60     82563.00
   15227.000     47490.60     82564.00
   15227.200     47514.60     82500.00
   15227.400     47572.60     82549.00
   15227.600     47645.60     82582.00
   15227.800     47698.60     82585.00
   15228.000     47830.60     82662.00
   15228.200     47847.60     82637.00
   15228.400     47905.60     82608.00
   15228.600     47959.60     82567.00
   15228.800     48011.60     82557.00
   15229.000     48064.60     82509.00
   15229.200     48072.60     82387.00
   15229.400     48073.60     82298.00
   15229.600     48445.60     82814.00
   15229.800     48540.60     82917.00
   15230.000     48569.60     82848.00
   15231.082     48900.60     82821.00
   15232.184     48940.60     82515.00
   15233.306     48946.60     82345.00
   15234.447     48878.60     82235.00
   15235.607     48714.60     82098.00
   15236.787     48623.60     82116.00
   15237.985     48567.60     82200.00
   15239.203     48510.60     82228.00
   15240.440     48431.60     82262.00
   15241.696     48229.60     82096.00
   15242.972     48068.60     82177.00
   15244.266     47829.60     82126.00
   15245.580     47375.60     81734.00
   15246.914     47216.60     81855.00
   15248.266     47004.60     81797.00
   15249.637     46987.60     82038.00
   15251.028     46934.60     81973.00
   15252.438     46862.60     81753.00
   15253.867     46981.60     81685.00
   15255.316     47261.60     81770.00
   15256.783     47477.60     81799.00
   15258.270     47548.60     81627.00
   15259.776     47756.60     81716.00
   15261.302     47847.60     81652.00
   15262.846     48110.60     81978.00
   15264.410     48035.60     81700.00
   15265.993     48028.60     81561.00
   15267.595     47989.60     81433.00
   15269.216     48036.60     81506.00
   15270.857     48067.60     81637.00
   15272.517     48126.60     81956.00
   15274.196     48037.60     81960.00
   15275.894     48017.60     82170.00
   15277.611     47849.60     82093.00
   15279.348     47914.60     82371.00
   15281.104     48009.60     82595.00
   15282.879     48008.60     82561.00
   15284.673     48073.60     82533.00
   15286.487     48397.60     83017.00
   15288.319     48535.60     82991.00
   15290.171     48698.60     82997.00
   15292.042     48625.60     82647.00
   15293.933     48713.60     82653.00
   15295.842     48876.60     82818.00
   15297.771     49129.60     83223.00
   15299.719     49145.60     83267.00
   15301.686     49114.60     83108.00
   15303.673     49218.60     83206.00
   15305.679     49273.60     83229.00
   15307.703     49238.60     83133.00
   15309.748     49205.60     83045.00
   15311.811     49139.60     82954.00
   15313.893     49247.60     83160.00
   15315.995     49359.60     83336.00
   15318.116     49308.60     83240.00
   15320.256     49395.60     83333.00
   15322.416     49232.60     83011.00
   15324.594     49091.60     82826.00
   15326.792     49150.60     82909.00
   15329.009     49134.60     82845.00
   15331.245     49129.60     82801.00
   15333.501     49120.60     82719.00
   15335.775     49260.60     82874.00
   15338.069     49126.60     82520.00
   15340.382     49290.60     82618.00
   15342.715     49255.60     82566.00
   15345.066     49402.60     82675.00
   15347.437     49412.60     82559.00
   15349.827     49350.60     82356.00
   15352.236     49503.60     82607.00
   15354.665     49589.60     82653.00
   15357.112     49694.60     82736.00
   15359.579     49689.60     82549.00
   15362.065     49670.60     82374.00
   15364.570     49695.60     82355.00
   15367.095     49682.60     82279.00
   15369.639     49778.60     82340.00
   15372.201     50072.60     82763.00
   15374.784     50037.60     82657.00
   15377.385     50081.60     82730.00
   15380.006     50162.60     82814.00
   15382.645     50114.60     82678.00
   15385.304     50249.60     82898.00
   15387.982     50068.60     82602.00
   15390.680     50023.60     82541.00
   15393.397     50058.60     82619.00
   15396.132     49990.60     82439.00
   15398.887     50030.60     82479.00
   15401.662     50170.60     82675.00
   15404.455     50135.60     82582.00
   15407.268     50010.60     82311.00
   15410.100     49726.60     81680.00
   15412.951     50135.60     82215.00
   15415.821     50358.60     82575.00
   15418.711     50362.60     82501.00
   15421.620     50246.60     82292.00
   15424.548     50296.60     82308.00
   15427.495     50429.60     82467.00
   15430.461     50360.60     82310.00
   15433.447     50175.60     81917.00
   15436.452     50071.60     81765.00
   15439.476     49987.60     81622.00
   15442.519     50171.60     81959.00
   15445.582     50031.60     81791.00
   15448.664     49897.60     81550.00
   15451.764     49673.60     81159.00
   15454.885     49560.60     80935.00
   15458.024     49319.60     80414.00
   15461.183     49547.60     80563.00
   15464.360     49288.60     79967.00
   15467.557     49574.60     80269.00
   15470.774     49580.60     80086.00
   15474.009     49372.60     79619.00
   15477.264     49226.60     79353.00
   15480.538     49155.60     79171.00
   15483.831     49182.60     79198.00
   15487.143     49091.60     78982.00
   15490.475     48849.60     78653.00
   15493.825     49123.60     78926.00
   15497.195     49073.60     78665.00
   15500.584     49188.60     78730.00
   15503.993     50096.60     80152.00
   15507.420     49866.60     79814.00
   15510.867     50456.60     80622.00
   15514.333     50389.60     80489.00
   15517.819     50520.60     80604.00
   15521.323     50885.60     81096.00
   15524.847     50689.60     80664.00
   15528.390     50871.60     80884.00
   15531.952     50855.60     80821.00
   15535.533     50308.60     79920.00
   15539.134     50559.60     80237.00
   15542.753     51179.60     81167.00
   15546.392     51190.60     81109.00
   15550.050     51234.60     81093.00
   15553.728     51202.60     80978.00
   15557.425     51144.60     80864.00
   15561.140     51229.60     80836.00
   15564.875     51278.60     80762.00
   15568.630     51364.60     80791.00
   15572.403     51478.60     80831.00
   15576.196     51428.60     80562.00
   15580.008     51460.60     80518.00
   15583.839     51259.60     80105.00
   15587.689     51674.60     80712.00
   15591.559     51657.60     80609.00
   15595.448     51701.60     80598.00
   15599.356     51853.60     80781.00
   15603.283     51843.60     80783.00
   15607.229     51197.60     79699.00
   15611.195     51636.60     80284.00
   15615.180     51729.60     80370.00
   15619.184     51961.60     80638.00
   15623.207     52171.60     80857.00
   15627.250     52235.60     80778.00
   15631.311     52050.60     80503.00
   15635.392     51841.60     80097.00
   15639.492     51502.60     79469.00
   15643.612     51005.60     78563.00
   15647.750     50160.60     77190.00
   15651.908     50995.60     78359.00
   15656.085     51518.60     79110.00
   15660.281     51599.60     79070.00
   15664.497     51332.60     78628.00
   15668.731     51479.60     78750.00
   15672.985     51666.60     79052.00
   15677.258     51162.60     78149.00
   15681.551     50720.60     77403.00
   15685.862     50498.60     76914.00
   15690.193     50821.60     77389.00
   15694.543     50566.60     76872.00
   15698.912     50396.60     76615.00
   15703.300     50241.60     76207.00
   15707.708     50349.60     76281.00
   15712.135     50516.60     76443.00
   15716.581     50231.60     75959.00
   15721.046     49467.60     74682.00
   15725.530     50618.60     76339.00
   15730.034     49962.60     75291.00
   15734.557     49860.60     75083.00
   15739.099     47344.60     71134.00
   15743.660     45516.60     68271.00
   15748.241     41243.60     61731.00
   15752.841     38635.60     57772.00
   15757.460     36085.60     53864.00
   15762.098     33575.60     50107.00
   15766.755     31006.60     46227.00
   15771.432     29076.60     43381.00
   15776.128     27533.60     41116.00
   15780.843     27317.60     40848.00
   15785.577     26634.60     39817.00
   15790.330     26160.60     39072.00
   15795.103     26015.60     38859.00
   15799.895     25900.60     38671.00
   15804.706     25520.60     38177.00
   15809.536     25421.60     38007.00
   15814.386     25500.60     38159.00
   15819.255     25291.60     37915.00
   15824.143     24973.60     37555.00
   15829.050     24924.60     37594.00
   15833.976     24501.60     37138.00
   15838.922     24106.60     36899.00
   15843.887     23823.60     37035.00
