#XDI/1.1  GSE/2.0
# Column.1: energy eV
# Column.2: itrans
# Column.3: i0
# Element.symbol:  Pb
# Element.edge:  L1
# Mono.d_spacing:  3.13477
# Mono.name: Si 111
# Sample.formula: Pb
# Sample.name: Pb
# Sample.prep: metal foil
# Sample.temperature: room temperature
# Facility.Name:  APS
# Beamline.Name:  13-ID-E
# Beamline.xray_source:  3.6cm undulator
# Beamline.Storage_Ring_Current: 102.0
# Beamline.I0: He,  20 cm
# Beamline.I1: N2,  10 cm
# Scan.start_time: 2016-07-05 17:56:16
# Scan.end_time: 2016-07-05 18:04:03
# ScanParameters.Start: Scan.Member: Value
# ScanParameters.ScanType: xafs
# ScanParameters.E0: 15861.000
# ScanParameters.Legend:  Start, Stop, Step, K-space, Time
# ScanParameters.Region1:   -100.000,   -20.000,     5.000  False  0.50
# ScanParameters.Region2:    -20.000,    30.000,     0.200  False  0.50
# ScanParameters.Region3:      2.806,    13.000,     0.050  True  0.50
# ScanParameters.End: here
#-------------------------
#  energy  itrans  i0
   15761.000    206781.60    153769.00
   15766.000    206436.60    153597.00
   15771.000    207375.60    153999.00
   15776.000    207537.60    153939.00
   15781.000    206399.60    153685.00
   15786.000    206286.60    153821.00
   15791.000    206095.60    153817.00
   15796.000    206304.60    153643.00
   15801.000    206244.60    153456.00
   15806.000    205608.60    153024.00
   15811.000    205634.60    153153.00
   15816.000    205211.60    153001.00
   15821.000    204857.60    152959.00
   15826.000    204001.60    152579.00
   15831.000    203022.60    152523.00
   15836.000    201389.60    152488.00
   15841.000    198411.60    152063.00
   15841.200    197984.60    151895.00
   15841.400    198231.60    152219.00
   15841.600    197878.60    152041.00
   15841.800    197813.60    152039.00
   15842.000    197687.60    152125.00
   15842.200    197836.60    152347.00
   15842.400    197166.60    151847.00
   15842.600    197103.60    152086.00
   15842.800    197142.60    152135.00
   15843.000    197320.60    152323.00
   15843.200    197002.60    152172.00
   15843.400    196543.60    151983.00
   15843.600    196543.60    152242.00
   15843.800    196364.60    152155.00
   15844.000    196324.60    152320.00
   15844.200    196049.60    152207.00
   15844.400    195520.60    151927.00
   15844.600    195196.60    151835.00
   15844.800    195002.60    151879.00
   15845.000    194934.60    151959.00
   15845.200    194909.60    151941.00
   15845.400    194817.60    151972.00
   15845.600    194405.60    152052.00
   15845.800    194339.60    152006.00
   15846.000    194037.60    152149.00
   15846.200    194329.60    152383.00
   15846.400    194103.60    152413.00
   15846.600    193678.60    152158.00
   15846.800    193279.60    152005.00
   15847.000    193091.60    152124.00
   15847.200    192404.60    151789.00
   15847.400    192427.60    152082.00
   15847.600    192146.60    152137.00
   15847.800    186133.60    147459.00
   15848.000    192452.60    152782.00
   15848.200    192243.60    152839.00
   15848.400    191637.60    152593.00
   15848.600    191216.60    152558.00
   15848.800    190500.60    152412.00
   15849.000    190353.60    152553.00
   15849.200    190083.60    152537.00
   15849.400    189822.60    152572.00
   15849.600    189434.60    152541.00
   15849.800    188897.60    152507.00
   15850.000    188374.60    152519.00
   15850.200    187964.60    152454.00
   15850.400    187567.60    152464.00
   15850.600    186912.60    152429.00
   15850.800    186436.60    152380.00
   15851.000    185633.60    152108.00
   15851.200    185261.60    152149.00
   15851.400    184745.60    152119.00
   15851.600    184101.60    152144.00
   15851.800    183536.60    152227.00
   15852.000    183143.60    152443.00
   15852.200    182357.60    152283.00
   15852.400    181799.60    152286.00
   15852.600    180882.60    152029.00
   15852.800    179898.60    152119.00
   15853.000    178819.60    152107.00
   15853.200    178268.60    152052.00
   15853.400    177845.60    152036.00
   15853.600    176801.60    151969.00
   15853.800    175904.60    151829.00
   15854.000    175148.60    151921.00
   15854.200    174051.60    151780.00
   15854.400    173220.60    151751.00
   15854.600    172438.60    151864.00
   15854.800    171547.60    151961.00
   15855.000    170465.60    152233.00
   15855.200    169361.60    152118.00
   15855.400    168202.60    151991.00
   15855.600    167591.60    152159.00
   15855.800    166265.60    151837.00
   15856.000    165403.60    151952.00
   15856.200    164417.60    152030.00
   15856.400    162913.60    151972.00
   15856.600    161893.60    152068.00
   15856.800    160584.60    151887.00
   15857.000    159623.60    152130.00
   15857.200    158689.60    152029.00
   15857.400    157625.60    152018.00
   15857.600    156285.60    151864.00
   15857.800    155518.60    152068.00
   15858.000    154182.60    151900.00
   15858.200    153034.60    151902.00
   15858.400    151797.60    151756.00
   15858.600    150857.60    151771.00
   15858.800    149960.60    151946.00
   15859.000    149096.60    152095.00
   15859.200    147891.60    151708.00
   15859.400    147280.60    151940.00
   15859.600    146703.60    152188.00
   15859.800    146057.60    152438.00
   15860.000    145173.60    152196.00
   15860.200    144421.60    152113.00
   15860.400    143799.60    152150.00
   15860.600    143298.60    152313.00
   15860.800    142540.60    152045.00
   15861.000    141760.60    151706.00
   15861.200    141739.60    152210.00
   15861.400    141155.60    151882.00
   15861.600    141020.60    152226.00
   15861.800    140671.60    152199.00
   15862.000    140191.60    151896.00
   15862.200    140197.60    152147.00
   15862.400    139944.60    151993.00
   15862.600    139754.60    151770.00
   15862.800    139774.60    151837.00
   15863.000    139715.60    151787.00
   15863.200    139651.60    151830.00
   15863.400    139886.60    152038.00
   15863.600    139802.60    151890.00
   15863.800    139891.60    151830.00
   15864.000    140109.60    151872.00
   15864.200    140208.60    151907.00
   15864.400    140212.60    151684.00
   15864.600    140522.60    151792.00
   15864.800    140665.60    151635.00
   15865.000    141089.60    151858.00
   15865.200    141304.60    151923.00
   15865.400    141481.60    151910.00
   15865.600    141766.60    151928.00
   15865.800    142031.60    151922.00
   15866.000    142136.60    151745.00
   15866.200    142554.60    152040.00
   15866.400    142443.60    151576.00
   15866.600    142717.60    151597.00
   15866.800    142815.60    151467.00
   15867.000    143330.60    151752.00
   15867.200    143671.60    151755.00
   15867.400    143835.60    151710.00
   15867.600    143933.60    151640.00
   15867.800    144168.60    151690.00
   15868.000    144626.60    151875.00
   15868.200    144787.60    151956.00
   15868.400    144780.60    151837.00
   15868.600    145085.60    151903.00
   15868.800    145211.60    151734.00
   15869.000    145306.60    151805.00
   15869.200    145369.60    151771.00
   15869.400    145606.60    151901.00
   15869.600    145466.60    151648.00
   15869.800    145853.60    151877.00
   15870.000    145661.60    151711.00
   15870.200    145950.60    151954.00
   15870.400    145947.60    151931.00
   15870.600    145968.60    151809.00
   15870.800    145719.60    151465.00
   15871.000    146074.60    151867.00
   15871.200    146295.60    152132.00
   15871.400    146108.60    151805.00
   15871.600    145952.60    151749.00
   15871.800    145772.60    151637.00
   15872.000    145949.60    151806.00
   15872.200    145782.60    151674.00
   15872.400    145764.60    151676.00
   15872.600    145874.60    151882.00
   15872.800    145553.60    151629.00
   15873.000    145773.60    151950.00
   15873.200    145511.60    151789.00
   15873.400    145604.60    151744.00
   15873.600    145496.60    151784.00
   15873.800    145504.60    151883.00
   15874.000    145208.60    151786.00
   15874.200    145122.60    151775.00
   15874.400    144927.60    151661.00
   15874.600    144787.60    151619.00
   15874.800    144715.60    151588.00
   15875.000    144496.60    151412.00
   15875.200    144548.60    151586.00
   15875.400    144455.60    151581.00
   15875.600    144487.60    151533.00
   15875.800    144589.60    151583.00
   15876.000    144511.60    151712.00
   15876.200    144539.60    151595.00
   15876.400    144203.60    151395.00
   15876.600    144217.60    151527.00
   15876.800    143981.60    151388.00
   15877.000    144292.60    151758.00
   15877.200    144065.60    151600.00
   15877.400    143841.60    151316.00
   15877.600    143875.60    151302.00
   15877.800    144184.60    151655.00
   15878.000    143852.60    151282.00
   15878.200    143905.60    151376.00
   15878.400    143999.60    151433.00
   15878.600    144038.60    151522.00
   15878.800    143710.60    151175.00
   15879.000    143901.60    151328.00
   15879.200    143992.60    151309.00
   15879.400    144050.60    151338.00
   15879.600    144227.60    151280.00
   15879.800    144193.60    151271.00
   15880.000    144247.60    151358.00
   15880.200    144290.60    151185.00
   15880.400    144394.60    151182.00
   15880.600    144534.60    151295.00
   15880.800    144375.60    151171.00
   15881.000    144455.60    151094.00
   15881.200    144628.60    151228.00
   15881.400    144820.60    151259.00
   15881.600    144728.60    151056.00
   15881.800    144983.60    151198.00
   15882.000    145062.60    151203.00
   15882.200    144963.60    150996.00
   15882.400    140868.60    146660.00
   15882.600    145872.60    151831.00
   15882.800    145676.60    151492.00
   15883.000    145684.60    151525.00
   15883.200    145845.60    151594.00
   15883.400    145913.60    151504.00
   15883.600    146004.60    151411.00
   15883.800    146185.60    151512.00
   15884.000    146283.60    151549.00
   15884.200    146250.60    151465.00
   15884.400    146248.60    151385.00
   15884.600    146537.60    151531.00
   15884.800    146802.60    151573.00
   15885.000    146531.60    151472.00
   15885.200    146685.60    151489.00
   15885.400    146809.60    151519.00
   15885.600    146829.60    151562.00
   15885.800    147128.60    151826.00
   15886.000    146935.60    151547.00
   15886.200    147002.60    151536.00
   15886.400    147050.60    151361.00
   15886.600    146780.60    151273.00
   15886.800    146928.60    151415.00
   15887.000    147084.60    151429.00
   15887.200    147043.60    151432.00
   15887.400    146901.60    151269.00
   15887.600    147081.60    151326.00
   15887.800    146891.60    151099.00
   15888.000    146910.60    151017.00
   15888.200    147075.60    151340.00
   15888.400    147173.60    151453.00
   15888.600    147125.60    151378.00
   15888.800    147088.60    151352.00
   15889.000    146851.60    151029.00
   15889.200    146811.60    151007.00
   15889.400    146667.60    150872.00
   15889.600    146778.60    151063.00
   15889.800    146667.60    150865.00
   15890.000    146694.60    150928.00
   15890.200    146550.60    150794.00
   15890.400    146479.60    150735.00
   15890.600    146401.60    150627.00
   15890.800    146338.60    150587.00
   15891.000    146301.60    150459.00
   15892.082    146077.60    150550.00
   15893.184    145670.60    150356.00
   15894.306    145388.60    150376.00
   15895.447    145327.60    150572.00
   15896.607    144707.60    150343.00
   15897.787    144745.60    150697.00
   15898.985    144152.60    150275.00
   15900.203    144022.60    150214.00
   15901.440    143983.60    150261.00
   15902.696    143895.60    150091.00
   15903.972    144144.60    150283.00
   15905.266    144379.60    150176.00
   15906.580    144846.60    150140.00
   15907.914    145197.60    150034.00
   15909.266    145484.60    149896.00
   15910.637    146013.60    150085.00
   15912.028    146226.60    150037.00
   15913.438    146127.60    149790.00
   15914.867    146121.60    149768.00
   15916.316    146339.60    150043.00
   15917.783    146028.60    149699.00
   15919.270    145971.60    149853.00
   15920.776    145517.60    149477.00
   15922.302    145434.60    149622.00
   15923.846    145208.60    149532.00
   15925.410    145034.60    149463.00
   15926.993    145018.60    149499.00
   15928.595    144985.60    149513.00
   15930.216    144939.60    149284.00
   15931.857    145193.60    149358.00
   15933.517    144777.60    148745.00
   15935.196    142984.60    146736.00
   15936.894    144193.60    147710.00
   15938.611    145846.60    149209.00
   15940.348    145812.60    148861.00
   15942.104    146277.60    149219.00
   15943.879    146008.60    148703.00
   15945.673    146091.60    148814.00
   15947.487    145855.60    148449.00
   15949.319    146113.60    148675.00
   15951.171    145900.60    148359.00
   15953.042    145809.60    148434.00
   15954.933    145851.60    148573.00
   15956.842    145667.60    148301.00
   15958.771    145399.60    148008.00
   15960.719    145224.60    147941.00
   15962.686    144727.60    147270.00
   15964.673    144096.60    146575.00
   15966.679    145852.60    148359.00
   15968.703    145506.60    147897.00
   15970.748    145656.60    147998.00
   15972.811    145305.60    147503.00
   15974.893    145171.60    147248.00
   15976.995    144230.60    146299.00
   15979.116    145658.60    147601.00
   15981.256    146150.60    147835.00
   15983.416    146536.60    147913.00
   15985.594    146253.60    147350.00
   15987.792    146416.60    147380.00
   15990.009    146733.60    147664.00
   15992.245    146384.60    147265.00
   15994.501    146575.60    147340.00
   15996.775    146594.60    147189.00
   15999.069    146186.60    146597.00
   16001.382    146416.60    146697.00
   16003.715    143540.60    143747.00
   16006.066    146561.60    146559.00
   16008.437    146912.60    146719.00
   16010.827    147095.60    146827.00
   16013.236    147099.60    146546.00
   16015.665    146867.60    146184.00
   16018.112    147159.60    146267.00
   16020.579    147199.60    146186.00
   16023.065    147199.60    146128.00
   16025.570    146500.60    145388.00
   16028.095    146745.60    145595.00
   16030.639    147094.60    145915.00
   16033.201    146934.60    145650.00
   16035.784    146887.60    145560.00
   16038.385    146363.60    144857.00
   16041.006    146901.60    145171.00
   16043.645    147079.60    145230.00
   16046.304    147298.60    145430.00
   16048.982    143388.60    141421.00
   16051.680    147676.60    145457.00
   16054.397    147693.60    145379.00
   16057.132    146431.60    144163.00
   16059.887    147358.60    144918.00
   16062.662    147452.60    144888.00
   16065.455    147650.60    144957.00
   16068.268    147566.60    144754.00
   16071.100    147801.60    145058.00
   16073.951    147725.60    144883.00
   16076.821    147722.60    144878.00
   16079.711    147824.60    144817.00
   16082.620    148059.60    144898.00
   16085.548    147475.60    144221.00
   16088.495    147699.60    144345.00
   16091.461    147783.60    144176.00
   16094.447    147258.60    143591.00
   16097.452    147687.60    143730.00
   16100.476    147846.60    143694.00
   16103.519    148188.60    143837.00
   16106.582    147644.60    143320.00
   16109.664    147014.60    142478.00
   16112.764    147881.60    143234.00
   16115.885    147712.60    143057.00
   16119.024    147601.60    142779.00
   16122.183    147664.60    142811.00
   16125.360    147705.60    142676.00
   16128.557    147791.60    142558.00
   16131.774    147811.60    142497.00
   16135.009    147783.60    142254.00
   16138.264    148059.60    142361.00
   16141.538    147935.60    142130.00
   16144.831    147736.60    141923.00
   16148.143    147418.60    141886.00
   16151.475    147575.60    141787.00
   16154.825    147553.60    141652.00
   16158.195    147594.60    141531.00
   16161.584    147728.60    141665.00
   16164.993    147636.60    141287.00
   16168.420    147998.60    141281.00
   16171.867    147958.60    140937.00
   16175.333    148577.60    141356.00
   16178.819    148810.60    141321.00
   16182.323    148071.60    140266.00
   16185.847    148380.60    140259.00
   16189.390    148586.60    140303.00
   16192.952    148429.60    140125.00
   16196.533    148386.60    140040.00
   16200.134    148553.60    139854.00
   16203.753    148669.60    139613.00
   16207.392    148983.60    139654.00
   16211.050    148922.60    139286.00
   16214.728    149381.60    139489.00
   16218.425    149334.60    139273.00
   16222.140    148969.60    138834.00
   16225.875    149343.60    138988.00
   16229.630    149516.60    138964.00
   16233.403    149362.60    138567.00
   16237.196    149678.60    138540.00
   16241.008    149303.60    138177.00
   16244.839    149230.60    138235.00
   16248.689    148951.60    138060.00
   16252.559    148937.60    137773.00
   16256.448    144587.60    133401.00
   16260.356    149939.60    138112.00
   16264.283    149879.60    137965.00
   16268.229    149811.60    137735.00
   16272.195    150197.60    137884.00
   16276.180    149744.60    137461.00
   16280.184    149852.60    137280.00
   16284.207    149930.60    137013.00
   16288.250    149746.60    136842.00
   16292.311    149594.60    136714.00
   16296.392    148907.60    136452.00
   16300.492    148120.60    135988.00
   16304.612    148068.60    135910.00
   16308.750    148450.60    136140.00
   16312.908    148119.60    135745.00
   16317.085    148135.60    135569.00
   16321.281    148329.60    135376.00
   16325.497    148588.60    135323.00
   16329.731    148354.60    134855.00
   16333.985    148889.60    134994.00
   16338.258    148674.60    134613.00
   16342.551    148834.60    134693.00
   16346.862    148765.60    134414.00
   16351.193    148211.60    133531.00
   16355.543    148624.60    133656.00
   16359.912    149144.60    133756.00
   16364.300    149381.60    133879.00
   16368.708    148797.60    133456.00
   16373.135    148345.60    132862.00
   16377.581    148576.60    132598.00
   16382.046    149061.60    132844.00
   16386.530    149005.60    132418.00
   16391.034    147879.60    131168.00
   16395.557    146594.60    129975.00
   16400.099    149128.60    132049.00
   16404.660    148212.60    130904.00
   16409.241    148721.60    131087.00
   16413.841    148983.60    131291.00
   16418.460    149136.60    131188.00
   16423.098    149008.60    130801.00
   16427.755    148621.60    130378.00
   16432.432    148752.60    130468.00
   16437.128    148472.60    130044.00
   16441.843    148993.60    130288.00
   16446.577    148938.60    129966.00
   16451.330    148956.60    129848.00
   16456.103    148851.60    129557.00
   16460.895    148626.60    129290.00
   16465.706    148026.60    128470.00
   16470.536    148264.60    128609.00
   16475.386    149301.60    129318.00
   16480.255    149014.60    128783.00
   16485.143    148865.60    128519.00
   16490.050    148896.60    128409.00
   16494.976    148766.60    128056.00
   16499.922    148922.60    128283.00
   16504.887    148524.60    127713.00
