# XDI/1.0 GSE/1.0
# Column.1: energy eV
# Column.2: mutrans
# Column.3: i0
# Element.edge: K
# Element.symbol: Ni
# Scan.edge_energy: 8333.0
# Mono.name: Si 111
# Mono.d_spacing: 3.13555
# Beamline.name: 13-ID-C
# Beamline.collimation: none
# Beamline.harmonic_rejection: detuned 
# Facility.name: APS
# Facility.energy: 7.00 GeV
# Facility.xray_source: APS undulator A
# Scan.start_time: 2001-06-26T21:46:07
# Detector.I0: 10cm  N2
# Detector.I1: 10cm  N2
# Sample.name: Ni metal foil
# Sample.prep: standard foil (Joe Wong boxed set)
# ///
# room temperature
# measured at beamline 13-ID-C
# vert slits = 0.3 x 0.3mm (at ~50m)
#----
#   energy      mutrans          i0
  8133.0000       -1.1873423        151941.70
  8143.0000       -1.1842239        140820.70
  8153.0000       -1.1884686        126260.70
  8163.0000       -1.1917982        120386.70
  8173.0000       -1.1916532        117711.70
  8183.0000       -1.1999837        116592.70
  8193.0000       -1.2039911        116417.70
  8203.0000       -1.2073376        116165.70
  8213.0000       -1.2081775        115657.70
  8223.0000       -1.2155289        115978.70
  8233.0000       -1.2188249        115894.70
  8243.0000       -1.2211987        116357.70
  8253.0000       -1.2234934        116689.70
  8263.0000       -1.2292512        116521.70
  8273.0000       -1.2326326        116288.70
  8283.0000       -1.2344532        116373.70
  8293.0000       -1.2343868        116615.70
  8303.0000       -1.2388544        116083.70
  8313.0000       -1.2356562        116211.70
  8313.5000       -1.2367004        118080.70
  8314.0000       -1.2364767        119027.70
  8314.5000       -1.2362301        119705.70
  8315.0000       -1.2362712        120604.70
  8315.5000       -1.2358703        119880.70
  8316.0000       -1.2351834        120302.70
  8316.5000       -1.2346210        120189.70
  8317.0000       -1.2340800        120275.70
  8317.5000       -1.2334993        120277.70
  8318.0000       -1.2330523        120269.70
  8318.5000       -1.2323739        120157.70
  8319.0000       -1.2315703        120457.70
  8319.5000       -1.2311827        120732.70
  8320.0000       -1.2303634        120265.70
  8320.5000       -1.2293996        119999.70
  8321.0000       -1.2286495        120327.70
  8321.5000       -1.2273827        119974.70
  8322.0000       -1.2262856        119937.70
  8322.5000       -1.2249326        120028.70
  8323.0000       -1.2232725        118335.70
  8323.5000       -1.2214627        120378.70
  8324.0000       -1.2194699        119999.70
  8324.5000       -1.2175161        119954.70
  8325.0000       -1.2151980        120532.70
  8325.5000       -1.2121628        119865.70
  8326.0000       -1.2085699        119870.70
  8326.5000       -1.2045024        120486.70
  8327.0000       -1.1994379        119980.70
  8327.5000       -1.1931084        119721.70
  8328.0000       -1.1851927        119671.70
  8328.5000       -1.1743570        119519.70
  8329.0000       -1.1589562        118924.70
  8329.5000       -1.1348095        118582.70
  8330.0000       -1.0921329        118552.70
  8330.5000       -1.0229213        118138.70
  8331.0000      -0.92742292        116606.70
  8331.5000      -0.80842546        114054.70
  8332.0000      -0.70866305        111553.70
  8332.5000      -0.60754773        108408.70
  8333.0000      -0.51536336        107993.70
  8333.5000      -0.43188587        118130.70
  8334.0000      -0.38182871        134420.70
  8334.5000      -0.34579963        140548.70
  8335.0000      -0.31693222        135548.70
  8335.5000      -0.29253934        129002.70
  8336.0000      -0.26735012        124517.70
  8336.5000      -0.23238153        122336.70
  8337.0000      -0.19034666        121364.70
  8337.5000      -0.13910261        119995.70
  8338.0000      -0.94662244E-01    119817.70
  8338.5000      -0.50341150E-01    120054.70
  8339.0000      -0.12430589E-01    119793.70
  8339.5000       0.26133198E-01    119931.70
  8340.0000       0.63902232E-01    119938.70
  8340.5000       0.11609604        120030.70
  8341.0000       0.17243811        120314.70
  8341.5000       0.24517342        120247.70
  8342.0000       0.31694289        120247.70
  8342.5000       0.40975267        120033.70
  8343.0000       0.49525052        120434.70
  8343.5000       0.59498334        120002.70
  8344.0000       0.68252874        120046.70
  8344.5000       0.78511685        119936.70
  8345.0000       0.87686094        119936.70
  8345.5000       0.97451542        120185.70
  8346.0000        1.0510221        120424.70
  8346.5000        1.1147523        120071.70
  8347.0000        1.1577697        120285.70
  8347.5000        1.1884285        120515.70
  8348.0000        1.2000953        120196.70
  8348.5000        1.2027731        119929.70
  8349.0000        1.1975869        119875.70
  8349.5000        1.1867110        119879.70
  8350.0000        1.1720697        120232.70
  8350.5000        1.1530223        120257.70
  8351.0000        1.1362693        119907.70
  8351.5000        1.1239679        120158.70
  8352.0000        1.1156954        120285.70
  8352.5000        1.1174386        120180.70
  8353.0000        1.1279611        120197.70
  8353.5000        1.1480234        120231.70
  8354.0000        1.1779727        119950.70
  8354.5000        1.2167450        120087.70
  8355.0000        1.2473349        120002.70
  8355.5000        1.2785960        119826.70
  8356.0000        1.2996547        120179.70
  8356.5000        1.3113997        119925.70
  8357.0000        1.3121045        119809.70
  8357.5000        1.3023944        120174.70
  8358.0000        1.2883319        119816.70
  8358.9840        1.2523341        120397.70
  8359.9880        1.2248281        120483.70
  8361.0120        1.1988449        120656.70
  8362.0530        1.1695700        120460.70
  8363.1140        1.1296814        120373.70
  8364.1930        1.0962321        120684.70
  8365.2930        1.0749813        120464.70
  8366.4100        1.0617497        120653.70
  8367.5480        1.0549038        120229.70
  8368.7030        1.0525743        120273.70
  8369.8780        1.0603247        120025.70
  8371.0720        1.0827682        120198.70
  8372.2850        1.1172657        119985.70
  8373.5180        1.1605562        120177.70
  8374.7690        1.2114582        120018.70
  8376.0380        1.2651099        120067.70
  8377.3270        1.3200947        119954.70
  8378.6360        1.3720963        120264.70
  8379.9630        1.4092333        119424.70
  8381.3090        1.4176942        120286.70
  8382.6740        1.4021158        119532.70
  8384.0590        1.3617750        120040.70
  8385.4610        1.3015238        120029.70
  8386.8840        1.2420412        119732.70
  8388.3250        1.1838597        120276.70
  8389.7850        1.1350592        119902.70
  8391.2650        1.0926176        120013.70
  8392.7630        1.0641078        120022.70
  8394.2800        1.0477114        120083.70
  8395.8160        1.0478143        119987.70
  8397.3720        1.0509489        119743.70
  8398.9460        1.0464904        120076.70
  8400.5400        1.0354069        119986.70
  8402.1520        1.0301015        119973.70
  8403.7830        1.0327133        119329.70
  8405.4340        1.0461404        119718.70
  8407.1040        1.0643025        119741.70
  8408.7920        1.0809811        118993.70
  8410.5000        1.0922568        120393.70
  8412.2270        1.1066838        120461.70
  8413.9720        1.1337669        119598.70
  8415.7360        1.1641943        119449.70
  8417.5210        1.1918273        119450.70
  8419.3220        1.2184646        119783.70
  8421.1450        1.2484789        119756.70
  8422.9850        1.2834493        119864.70
  8424.8450        1.3239857        119343.70
  8426.7240        1.3624839        119840.70
  8428.6210        1.3924337        119483.70
  8430.5380        1.4046521        119750.70
  8432.4740        1.3904305        120240.70
  8434.4290        1.3627377        119804.70
  8436.4020        1.3199443        119775.70
  8438.3960        1.2713402        119655.70
  8440.4070        1.2199875        119952.70
  8442.4380        1.1697433        113681.70
  8444.4880        1.1291137        122479.70
  8446.5570        1.1038161        121265.70
  8448.6460        1.0677318        120737.70
  8450.7520        1.0248878        120135.70
  8452.8780       0.97472547        119924.70
  8455.0230       0.93256865        119870.70
  8457.1880       0.90699220        119627.70
  8459.3700       0.90497947        119735.70
  8461.5720       0.91990690        119388.70
  8463.7940       0.94720144        119832.70
  8466.0340       0.98657108        119776.70
  8468.2930        1.0255402        119480.70
  8470.5710        1.0594599        119777.70
  8472.8680        1.0799720        120254.70
  8475.1850        1.0814678        119856.70
  8477.5200        1.0710931        119836.70
  8479.8740        1.0577644        120104.70
  8482.2470        1.0638890        119932.70
  8484.6400        1.1049238        119745.70
  8487.0510        1.1741269        120224.70
  8489.4810        1.2508299        119720.70
  8491.9310        1.3038611        120192.70
  8494.3990        1.3345768        119440.70
  8496.8870        1.3458017        119778.70
  8499.3930        1.3500349        119098.70
  8501.9190        1.3367798        119357.70
  8504.4630        1.3010784        119487.70
  8507.0260        1.2449024        119766.70
  8509.6090        1.1726439        119894.70
  8512.2110        1.0859409        119635.70
  8514.8310       0.98968023        119697.70
  8517.4710       0.89442931        119628.70
  8520.1290       0.83024314        119694.70
  8522.8070       0.79800317        119708.70
  8525.5040       0.80356753        120032.70
  8528.2200       0.84203709        119856.70
  8530.9540       0.89616383        119451.70
  8533.7080       0.95020059        119504.70
  8536.4800       0.99486706        119784.70
  8539.2720        1.0288501        119767.70
  8542.0830        1.0446471        119582.70
  8544.9130        1.0412274        119559.70
  8547.7620        1.0344794        119222.70
  8550.6300        1.0243321        119099.70
  8553.5170        1.0097732        119203.70
  8556.4220       0.98947158        119785.70
  8559.3480       0.96998744        119278.70
  8562.2910       0.95913780        119520.70
  8565.2540       0.97288018        119232.70
  8568.2360        1.0115522        119528.70
  8571.2370        1.0574203        119294.70
  8574.2570        1.0942978        119477.70
  8577.2960        1.1146666        119765.70
  8580.3540        1.1293603        119827.70
  8583.4320        1.1280185        119552.70
  8586.5270        1.1091712        119618.70
  8589.6430        1.0718494        119398.70
  8592.7760        1.0208146        119902.70
  8595.9300       0.96664764        119648.70
  8599.1030       0.91132286        120084.70
  8602.2930       0.87660375        118180.70
  8605.5040       0.85199623        119996.70
  8608.7320       0.84262466        119808.70
  8611.9810       0.84366674        119268.70
  8615.2480       0.84577187        119524.70
  8618.5350       0.84639103        118894.70
  8621.8400       0.84385868        118970.70
  8625.1640       0.84195897        119343.70
  8628.5080       0.84228491        118567.70
  8631.8700       0.84658900        119209.70
  8635.2520       0.85748283        119421.70
  8638.6520       0.87061390        119330.70
  8642.0710       0.88070023        118834.70
  8645.5100       0.88805464        119281.70
  8648.9680       0.89378250        119030.70
  8652.4440       0.89747161        119124.70
  8655.9390       0.90032896        120016.70
  8659.4540       0.90879576        119637.70
  8662.9880       0.91889568        119716.70
  8666.5410       0.92786742        119457.70
  8670.1120       0.92855320        119420.70
  8673.7030       0.91910035        119026.70
  8677.3130       0.90163375        117985.70
  8680.9410       0.87921371        120669.70
  8684.5890       0.85486408        119948.70
  8688.2560       0.83151250        119869.70
  8691.9410       0.81761623        119336.70
  8695.6460       0.81086507        119334.70
  8699.3700       0.81227480        119615.70
  8703.1130       0.81162564        118997.70
  8706.8750       0.80004275        119327.70
  8710.6550       0.77951716        119118.70
  8714.4560       0.75671674        119911.70
  8718.2740       0.74556025        119841.70
  8722.1120       0.74365875        119708.70
  8725.9700       0.74149080        119581.70
  8729.8460       0.73999660        119327.70
  8733.7400       0.74127459        118722.70
  8737.6540       0.74185681        118073.70
  8741.5880       0.74359397        121606.70
  8745.5400       0.74700257        121464.70
  8749.5110       0.75172258        120111.70
  8753.5010       0.75494678        119316.70
  8757.5100       0.75875963        119208.70
  8761.5380       0.76086228        119506.70
  8765.5850       0.76294884        119168.70
  8769.6510       0.76321042        118901.70
  8773.7360       0.76280246        119603.70
  8777.8410       0.75905966        119216.70
  8781.9640       0.75129352        119697.70
  8786.1060       0.73746595        119339.70
  8790.2680       0.72209484        118898.70
  8794.4480       0.70603235        114469.70
  8798.6470       0.69391214        122275.70
  8802.8660       0.68910953        120247.70
  8807.1040       0.68599027        118550.70
  8811.3590       0.68470077        119603.70
  8815.6350       0.68120546        119575.70
  8819.9300       0.67780737        119128.70
  8824.2430       0.66997310        119408.70
  8828.5750       0.65926326        119470.70
  8832.9270       0.64948020        118977.70
  8837.2980       0.64178537        119526.70
  8841.6880       0.63603483        119651.70
  8846.0960       0.62870671        119970.70
  8850.5230       0.62248059        119326.70
  8854.9700       0.61733857        119298.70
  8859.4360       0.61343475        119197.70
  8863.9200       0.61113522        116106.70
  8868.4240       0.61293108        120346.70
  8872.9460       0.61428579        120060.70
  8877.4880       0.61620928        119893.70
  8882.0490       0.61879900        119166.70
  8886.6290       0.62168359        120067.70
  8891.2280       0.62414236        118789.70
  8895.8460       0.62274874        118933.70
  8900.4820       0.61656093        118794.70
  8905.1390       0.60596440        118517.70
  8909.8130       0.59312898        118864.70
  8914.5070       0.58293974        119513.70
  8919.2200       0.57396154        119004.70
  8923.9520       0.56665671        119227.70
  8928.7030       0.55883088        119679.70
  8933.4730       0.55527481        119235.70
  8938.2620       0.55027057        119205.70
  8943.0700       0.54676087        118815.70
  8947.8960       0.54153122        118771.70
  8952.7430       0.53752319        118527.70
  8957.6080       0.53173155        118736.70
  8962.4920       0.52588285        119299.70
  8967.3960       0.51889904        119455.70
  8972.3170       0.51204011        119079.70
  8977.2590       0.50592513        118635.70
  8982.2190       0.50146460        119631.70
  8987.1980       0.49889237        119019.70
  8992.1960       0.49500361        119794.70
  8997.2140       0.49306043        119270.70
  9002.2500       0.48889773        119611.70
  9007.3060       0.48652271        119568.70
  9012.3800       0.48498682        119378.70
  9017.4730       0.48142683        119203.70
  9022.5850       0.47979050        119244.70
  9027.7170       0.47581550        119471.70
  9032.8670       0.47150482        117821.70
  9038.0370       0.46614887        119584.70
  9043.2250       0.46134721        119468.70
  9048.4330       0.45546493        119417.70
  9053.6590       0.44937874        119451.70
  9058.9040       0.44335477        119296.70
  9064.1690       0.43802480        118854.70
  9069.4530       0.43258070        119360.70
  9074.7560       0.42682246        118998.70
  9080.0770       0.42218470        119419.70
  9085.4180       0.41552790        119407.70
  9090.7770       0.41020866        118662.70
  9096.1560       0.40563769        119084.70
  9101.5540       0.40051102        119090.70
  9106.9710       0.39503030        119162.70
  9112.4060       0.38939665        119114.70
  9117.8610       0.38423747        119319.70
  9123.3350       0.37877184        119320.70
  9128.8270       0.37405824        119163.70
  9134.3390       0.36854059        119765.70
  9139.8700       0.36585226        119690.70
  9145.4200       0.36261029        120047.70
  9150.9880       0.35915837        118986.70
  9156.5770       0.35507149        119743.70
  9162.1840       0.35203072        119351.70
  9167.8100       0.34739529        119477.70
  9173.4540       0.34172443        119035.70
  9179.1180       0.33680320        119550.70
  9184.8020       0.33177838        119203.70
  9190.5040       0.32746174        119855.70
  9196.2250       0.32358764        119281.70
  9201.9650       0.31920214        119381.70
  9207.7240       0.31422800        119120.70
  9213.5020       0.30813397        118761.70
  9219.2990       0.30339778        119492.70
  9225.1150       0.29817493        119457.70
  9230.9500       0.29256968        119415.70
  9236.8050       0.28699427        119324.70
  9242.6780       0.28233027        118725.70
  9248.5700       0.27710064        119553.70
  9254.4810       0.27152359        119283.70
  9260.4120       0.26668526        119505.70
  9266.3610       0.26179492        119278.70
  9272.3290       0.25738187        119569.70
  9278.3160       0.25218687        119257.70
  9284.3230       0.24774556        119232.70
  9290.3490       0.24316618        118978.70
  9296.3930       0.23881492        119142.70
  9302.4560       0.23458952        119067.70
  9308.5390       0.23063718        119256.70
  9314.6410       0.22609269        119218.70
  9320.7610       0.22156547        119623.70
  9326.9000       0.21723806        119437.70
  9333.0590       0.21295576        119476.70
  9339.2360       0.20834415        119281.70
  9345.4340       0.20313588        118333.70
  9351.6480       0.19876596        119692.70
  9357.8830       0.19417875        119704.70
  9364.1370       0.18932131        119733.70
  9370.4100       0.18459208        120099.70
  9376.7010       0.18025471        119681.70
  9383.0120       0.17541822        119473.70
  9389.3420       0.17016559        118495.70
  9395.6900       0.16547428        119459.70
  9402.0590       0.16056354        119765.70
  9408.4450       0.15566454        119376.70
  9414.8510       0.15050422        119144.70
  9421.2750       0.14563839        119697.70
  9427.7200       0.14070816        119304.70
  9434.1830       0.13548619        119317.70
  9440.6640       0.13036959        119313.70
  9447.1660       0.12545548        119694.70
  9453.6860       0.12084079        118924.70
  9460.2250       0.11617710        118939.70
  9466.7820       0.11185991        118931.70
  9473.3590       0.10695798        119193.70
  9479.9550       0.10254764        118797.70
  9486.5700       0.97774470E-01    119162.70
  9493.2050       0.92886155E-01    119247.70
  9499.8570       0.88076496E-01    119341.70
  9506.5300       0.83237780E-01    119517.70
  9513.2210       0.79252436E-01    119099.70
  9519.9320       0.74072928E-01    119188.70
  9526.6600       0.69357406E-01    119802.70
  9533.4080       0.65545234E-01    118855.70
  9540.1760       0.59953047E-01    119873.70
  9546.9620       0.54946614E-01    119623.70
  9553.7680       0.50483603E-01    119795.70
  9560.5920       0.44965555E-01    119914.70
  9567.4350       0.40683351E-01    119512.70
