# XDI/1.0 EXAFS Data Collector 1.1 AD.RGN
# Column.1: energy eV
# Column.2: mutrans
# Column.3: i0
# Beamline.name: SSRL 4-3 (?)
# Detector.I0: N2 15cm
# Detector.I1: N2+Ar 30cm
# Element.edge: K
# Element.symbol: Sr
# Mono.d_spacing: 1.920128
# Mono.name: Si(220)
# Mono.notes: (?) unfocussed, detuned 50%, clockwise at E=16300eV
# Sample.formula: SrZrSi2O7
# Sample.name: SrZrSi2O7
# Sample.prep: powder
# Sample.reference: none
# Sample.temperature: room temperature
# Scan.start_time: 1997-03-18 18:39:16
# ///
#    Note: mono d_spacing is nominal!
#-------------
#   energy   mutrans      i0
  15700.043  0.49762858   69120.602
  15709.991  0.49387127   68497.602
  15719.954  0.49106022   68107.602
  15729.931  0.49140689   67856.602
  15739.919  0.49620759   66499.602
  15749.921  0.48364175   67130.602
  15759.935  0.48152247   66614.602
  15769.963  0.48281201   66499.602
  15780.002  0.48494502   66412.602
  15790.057  0.48168611   65979.602
  15799.958  0.48005527   65503.602
  15810.037  0.47872483   65219.602
  15819.965  0.47501924   64624.602
  15830.071  0.47654411   64597.602
  15840.023  0.47661093   64371.602
  15849.989   0.4724319   63793.602
  15859.968  0.47415304   63784.602
  15869.959  0.47566722   63694.602
  15879.964  0.47520333   63383.602
  15889.980  0.47393291   63015.602
  15900.011  0.47258305   62699.602
  15910.055    0.472647   62472.602
  15919.941  0.46950929   62046.602
  15930.011  0.46747748   61628.602
  15939.925  0.46831881   61485.602
  15950.020  0.46495046   60971.602
  15959.959  0.46583104   60765.602
  15970.079  0.46442379   60277.602
  15980.045  0.46252535   59853.602
  15990.021  0.46324728   59723.602
  16000.012  0.46263552   59372.602
  16010.014  0.46263159   59097.602
  16020.030  0.46041255   58676.602
  16030.059  0.45946435   58223.602
  16039.929  0.46112044   57950.602
  16049.982  0.46117571   57525.602
  16060.049  0.46215912   57099.602
  16069.959  0.46748568   56831.602
  16080.051  0.47685324   56388.602
  16081.248   0.4795724   56338.602
  16082.448  0.48130878   56266.602
  16083.646  0.48377883   56277.602
  16084.846   0.4863845   56188.602
  16086.215  0.48892896   56067.602
  16087.415  0.49589838   56157.602
  16088.613   0.5009519   56090.602
  16089.813  0.50634517   55947.602
  16091.013  0.51406668   55864.602
  16092.214  0.52441082   55911.602
  16093.586  0.54159544   55952.602
  16094.785  0.55941541   55763.602
  16095.986  0.59156192   55852.602
  16097.187  0.63856292   55809.602
  16098.387  0.71155207   55602.602
  16099.588  0.80864373   55731.602
  16100.962  0.96343415   55632.602
  16102.162   1.1290765   55547.602
  16103.364   1.3116618   55422.602
  16104.565   1.5188845   55432.602
  16105.769   1.7078017   55412.602
  16106.970   1.9022211   55410.602
  16108.173   2.0576075   55168.602
  16109.547   2.1876342   55216.602
  16110.750   2.2307917   55101.602
  16111.952   2.2118001   55142.602
  16113.155   2.1491892   54952.602
  16114.359   2.0812474   54981.602
  16115.563   2.0038154   54949.602
  16116.767   1.9341749   54767.602
  16118.143   1.8661886   54774.602
  16119.345   1.8145476   54761.602
  16120.551   1.7785442   54814.602
  16121.754   1.7454599   54743.602
  16122.960   1.7235992   54697.602
  16124.163   1.7091208   54651.602
  16125.369   1.7024244   54610.602
  16126.746   1.7003573   54437.602
  16127.951   1.7061891   54480.602
  16129.157   1.7145237   54425.602
  16130.362   1.7214109   54309.602
  16131.568   1.7268641   54173.602
  16132.774   1.7288472   54027.602
  16133.980   1.7309339   54010.602
  16135.188   1.7305729   53951.602
  16136.568   1.7350247   54067.602
  16137.773   1.7420732   53987.602
  16138.981    1.755895   54119.602
  16140.188   1.7711957   54060.602
  16141.396   1.7923656   54130.602
  16142.603    1.815008   54037.602
  16143.812   1.8362719   53812.602
  16145.020   1.8560804   53852.602
  16146.400   1.8726631   53627.602
  16147.607   1.8802149   53614.602
  16148.817   1.8819473   53661.602
  16150.024   1.8754639    107060.2
  16151.062   1.8681141   107189.19
  16152.271   1.8560803   106975.16
  16153.481   1.8427819   106925.09
  16154.517   1.8327133   106653.01
  16155.727   1.8243126   106676.91
  16156.937   1.8141614   106493.77
  16158.146    1.807187   106458.62
  16159.528   1.7993999   106114.45
  16160.740   1.7926254   106080.24
  16162.122   1.7859503   105867.02
  16163.334   1.7803554   105771.77
  16164.718   1.7746931    105690.5
  16166.102    1.769351    105734.2
  16167.486   1.7636895   105687.88
  16168.871   1.7587622   105611.54
  16170.257   1.7549245   105648.18
  16171.642   1.7502821   105666.79
  16173.200   1.7443473   105666.38
  16174.586   1.7387206   105705.94
  16176.146   1.7319442   105676.48
  16177.705   1.7257282   105914.99
  16179.265   1.7207053   106116.48
  16180.825    1.717065   106526.95
  16182.386   1.7152475    106844.4
  16183.946   1.7165292   107286.82
  16185.680   1.7214213   107946.21
  16187.242   1.7269834   108434.59
  16188.977    1.734886   108839.94
  16190.539   1.7425899   109097.27
  16192.275   1.7508476   109383.57
  16194.011   1.7579922   109515.85
  16195.748   1.7642627    109700.1
  16197.485   1.7676362   109722.34
  16199.396   1.7701842   109840.55
  16201.134   1.7703475   110054.73
  16203.046   1.7675289   110326.89
  16204.785   1.7633532   110633.03
  16206.698   1.7581558   110821.14
  16208.612   1.7534131   111037.23
  16210.525   1.7485838    111388.3
  16212.439   1.7436243   111541.34
  16214.355   1.7396592   111869.36
  16216.271   1.7351998   112222.36
  16218.360   1.7311279   112438.33
  16220.276   1.7275485   112655.28
  16222.367   1.7246291    113106.2
  16224.459   1.7213018   113423.11
  16226.551   1.7166837   113572.98
  16228.644   1.7138731   113846.84
  16230.738   1.7105533   114275.67
  16232.832   1.7067011   114578.48
  16234.925   1.7036639   114899.26
  16237.194   1.7010328   115280.02
  16239.290   1.6985196   115452.76
  16241.561   1.6961373   116020.47
  16243.832   1.6936897   116245.16
  16246.104   1.6917988   116711.82
  16248.377   1.6905878   117136.46
  16250.650   1.6907603   117462.08
  16252.925   1.6915147   117926.67
  16255.199   1.6946929   118254.24
  16257.649    1.697215   118755.79
  16259.925   1.7004661   118995.31
  16262.377   1.7039602   119362.81
  16264.830   1.7086403   119757.29
  16267.282   1.7136923   120191.74
  16269.737    1.716926   120536.17
  16272.192   1.7197329   120952.58
  16274.646   1.7194589   121593.96
  16277.279   1.7171752   121989.32
  16279.736   1.7137617   122393.66
  16282.369   1.7095419   122876.96
  16284.828   1.7047502   123448.25
  16287.463   1.7000488   123852.52
  16290.099   1.6949093   124380.76
  16292.735   1.6900213   124833.97
  16295.373   1.6859868   125246.16
  16298.013   1.6822025   125700.34
  16300.827   1.6790418   126238.48
  16303.468   1.6772188    126791.6
  16306.286   1.6757473    127135.7
  16309.104   1.6743292   127623.77
  16311.748   1.6740829   127982.82
  16314.567   1.6743509   128572.85
  16317.388   1.6754038   129130.85
  16320.211   1.6768923   129756.84
  16323.212   1.6779381   130074.79
  16326.035   1.6797719   130656.73
  16328.861   1.6803767   131191.64
  16331.863   1.6800437   131560.52
  16334.867   1.6780491   132170.37
  16337.696   1.6756133   132761.22
  16340.703    1.672937   133055.03
  16343.710   1.6706314   133602.83
  16346.719   1.6689693   134079.59
  16349.905   1.6673323   134589.34
  16352.918   1.6657929   135184.06
  16355.929   1.6645831   135757.75
  16359.119   1.6629237   136289.42
  16362.312   1.6609254   136846.08
  16365.326   1.6595854    137316.7
  16368.521   1.6583919    138068.3
  16371.717   1.6568475   138658.87
  16374.914   1.6552248   139063.44
  16378.111   1.6534386   139714.97
  16381.488   1.6517246   140321.47
  16384.689    1.650487   141080.95
  16388.068   1.6494306   141624.42
  16391.271   1.6482647   141968.86
  16394.656   1.6465031   142528.27
  16398.039   1.6448956   142951.66
  16401.424   1.6429404   143499.03
  16404.813   1.6412911   144113.36
  16408.199   1.6394692   144653.69
  16411.590   1.6374924   145245.98
  16415.160   1.6364984   145855.25
  16418.553   1.6346352    146489.5
  16422.127   1.6336533   147014.72
  16425.521   1.6322489   147506.92
  16429.098   1.6308886   148162.09
  16432.676   1.6303771   148599.25
  16436.254   1.6299363   149250.37
  16439.834   1.6289758   149756.48
  16443.416   1.6282789   150392.58
  16447.180   1.6270274   150821.62
  16450.766   1.6258058   151563.67
  16454.354   1.6243156   152135.67
  16458.121   1.6227947   152619.66
  16461.891   1.6218141   153128.62
  16465.662   1.6199576   153870.56
  16469.438   1.6182945   154477.48
  16473.211   1.6170628   155113.37
  16476.988   1.6156191   155719.25
  16480.768    1.613761   156268.09
  16484.549    1.611588   156834.92
  16488.510   1.6096651   157582.72
  16492.295   1.6069423   158105.48
  16496.260   1.6049097   158793.25
  16500.229   1.6028311   159325.97
  16504.199   1.6014033   159954.67
  16508.172   1.6002095   160321.36
  16512.145   1.5992473   160912.02
  16516.121   1.5979917   161552.64
  16520.100   1.5966425   161613.25
  16524.080   1.5956396   162542.84
  16528.242   1.5935224   163273.41
  16532.227    1.592136   163824.94
  16536.393   1.5904975   164308.45
  16540.563   1.5888724   164693.95
  16544.734   1.5866753   165623.42
  16548.906   1.5850559   166204.86
  16553.084   1.5833625   166625.28
  16557.262   1.5813178   167062.69
  16561.441   1.5795517   167709.06
  16565.807   1.5780159   168352.41
  16569.990   1.5769141   168848.73
  16574.357   1.5756528   169215.03
  16578.549   1.5739987   170261.31
  16582.922    1.572145   170840.56
  16587.297    1.570466    171547.8
  16591.674   1.5684772   172141.02
  16596.055   1.5667141   172650.19
  16600.438   1.5650089   173133.36
  16604.822   1.5629729   173499.48
  16609.393   1.5607596   174127.61
  16613.783   1.5586774   174565.69
  16618.357   1.5563554   175110.77
  16622.754   1.5545121    175584.8
  16627.332   1.5529972   176118.83
  16631.916   1.5505539   176764.81
  16636.502   1.5488244    177457.8
  16641.090   1.5472816   177621.73
  16645.682   1.5454358   178063.66
  16650.273   1.5439944   178542.56
  16655.053   1.5424701   178892.44
  16659.652   1.5405012    179394.3
  16664.254   1.5390397   179812.12
  16669.043   1.5367385   179704.94
  16673.832   1.5346858   180736.72
  16678.625   1.5329985   181505.47
  16683.420   1.5312451    181357.2
  16688.221   1.5291814   181936.92
  16693.023   1.5266186   182127.61
  16697.828   1.5245323   182499.28
  16702.635   1.5226488   183363.92
  16707.445   1.5205364   183125.53
  16712.445   1.5185362   183533.12
  16717.260   1.5166333    183928.7
  16722.264   1.5148706   184393.25
  16727.271   1.5127815   184590.77
  16732.281   1.5108106   185175.27
  16737.295   1.5091287   185416.75
  16742.313   1.5073905    185944.2
  16747.332   1.5057508   186000.62
  16752.355   1.5037651   186878.03
  16757.381   1.5016989   186887.41
  16762.596   1.4995828   187253.77
  16767.629   1.4973085   188066.11
  16772.852   1.4952627   187770.41
  16777.889   1.4937293    187646.7
  16783.117    1.490569   188389.97
  16788.348   1.4890949    189011.2
  16793.584   1.4868403   189088.42
  16798.822   1.4849394   189407.61
  16804.063   1.4826931   189676.78
  16809.309   1.4808791   190082.92
  16814.744    1.478648   190223.05
  16819.996   1.4766316   190875.14
  16825.438   1.4743328   190635.22
  16830.697    1.472857   190700.27
  16836.146   1.4707514    191075.3
  16841.600   1.4687363    191165.3
  16847.059   1.4667148   191725.28
  16852.330   1.4650243   191653.23
  16857.982   1.4623712   191530.17
  16863.451   1.4613985   191672.08
  16868.922   1.4581758   191695.97
  16874.396   1.4561348   192471.83
  16880.064   1.4538514   192109.66
  16885.547   1.4513963   192594.47
  16891.223   1.4496601   192251.27
  16896.711    1.447898   192180.03
  16902.396   1.4451913   192414.78
  16908.082   1.4433032    192571.5
  16913.773   1.4413658   192286.19
  16919.469   1.4392097   192207.86
  16925.166   1.4376417   192115.52
  16930.869   1.4357487   192494.14
  16936.576   1.4333813   192229.73
  16942.287    1.431338   192341.31
  16948.191   1.4293801   192371.87
  16953.910   1.4271287   191832.41
  16959.822   1.4249485   191731.91
  16965.740   1.4229472   192092.39
  16971.471   1.4206429   192441.86
  16977.396   1.4188904    192064.3
  16983.326   1.4166637    192008.7
  16989.260   1.4141361   192207.09
  16995.197   1.4117958   192295.45
  17001.332   1.4097659    191962.8
