# XDI/1.0 EXAFS Data Collector 1.1 AD.RGN
# Column.1: energy eV
# Column.2: mutrans
# Column.3: i0
# Beamline.name: SSRL 4-3 (?)
# Detector.I0: N2 15cm
# Detector.I1: N2+Ar 30cm
# Element.edge: K
# Element.symbol: Sr
# Mono.d_spacing: 1.920128
# Mono.name: Si(220)
# Mono.notes: (?) unfocussed, detuned 50%, clockwise at E=16300eV
# Sample.formula: SrZrSi2O7
# Sample.name: SrZrSi2O7
# Sample.prep: powder
# Sample.reference: none
# Sample.temperature: room temperature
# Scan.start_time: 1997-03-18 18:39:16
# ///
#    Note: mono d_spacing is nominal!
#-------------
#   energy   mutrans      i0
  15700.043  0.46854181   69642.602
  15709.991  0.46906112   69440.602
  15719.954  0.46974295   69345.602
  15729.931  0.46834035   68890.602
  15739.919  0.47715841   68074.602
  15749.921  0.46551264   68756.602
  15759.935  0.46491634   68247.602
  15769.963  0.46604389   68222.602
  15780.002  0.46622756   68005.602
  15790.057  0.46407568   67660.602
  15799.958  0.46313096   67264.602
  15810.037  0.46402025   67098.602
  15819.965  0.46408999   66880.602
  15830.071  0.46787333   67092.602
  15840.023  0.46187171   66316.602
  15849.989  0.46010016   65839.602
  15859.968  0.46430885   66026.602
  15869.959  0.46258237   65604.602
  15879.964  0.46271809   65381.602
  15889.980   0.4592325   64886.602
  15900.011  0.46035055   64648.602
  15910.055  0.46095894   64505.602
  15919.941  0.46019064   64137.602
  15930.011  0.45790045   63652.602
  15939.925  0.45376859   63007.602
  15950.020  0.45513897   62920.602
  15959.959  0.45754034   62918.602
  15970.079  0.45894474   62595.602
  15980.045  0.45629479   62150.602
  15990.021  0.45526249   61862.602
  16000.012  0.45396078   61443.602
  16010.014  0.45472041   61184.602
  16020.030  0.45450291   60895.602
  16030.059  0.45469067   60481.602
  16039.929  0.45249535   59905.602
  16049.982  0.45542036   59732.602
  16060.049  0.45762101   59478.602
  16069.959  0.46208759   59022.602
  16080.051  0.47133764   58449.602
  16081.248  0.47461308   58562.602
  16082.448  0.47617675   58549.602
  16083.646  0.48005525   58644.602
  16084.846   0.4821712   58535.602
  16086.215  0.48724417   58499.602
  16087.415  0.49084484   58331.602
  16088.613  0.49627099   58333.602
  16089.813  0.50483475   58452.602
  16091.013  0.51233086   58351.602
  16092.214  0.52296739   58204.602
  16093.586  0.54058204   58124.602
  16094.785  0.56158713   58304.602
  16095.986  0.59566406   58148.602
  16097.187  0.64625143   57984.602
  16098.387  0.72432822   57980.602
  16099.588  0.82526602   57868.602
  16100.962  0.98458758   57793.602
  16102.162   1.1566361   57735.602
  16103.364   1.3409451   57650.602
  16104.565   1.5486401   57652.602
  16105.769   1.7355598   57641.602
  16106.970     1.92665   57618.602
  16108.173   2.0771916   57624.602
  16109.547   2.1931824   57549.602
  16110.750    2.224099   57507.602
  16111.952   2.1940772   57448.602
  16113.155   2.1289905   57325.602
  16114.359   2.0608791   57312.602
  16115.563   1.9845136   57238.602
  16116.767   1.9185332   57268.602
  16118.143   1.8481307   57082.602
  16119.345   1.8009538   57013.602
  16120.551   1.7649397   56918.602
  16121.754   1.7364135   57009.602
  16122.960   1.7144966   56895.602
  16124.163   1.6989815   56637.602
  16125.369   1.6964663   56762.602
  16126.746   1.6961711   56658.602
  16127.951   1.7021289   56640.602
  16129.157   1.7084667   56564.602
  16130.362   1.7171342   56455.602
  16131.568    1.722602   56367.602
  16132.774   1.7244984   56244.602
  16133.980   1.7255565   56253.602
  16135.188   1.7255881   56120.602
  16136.568   1.7308241   56138.602
  16137.773   1.7381498   56147.602
  16138.981   1.7543598   56371.602
  16140.188   1.7695954   56274.602
  16141.396   1.7899926   56092.602
  16142.603   1.8105631   55980.602
  16143.812   1.8326928   55920.602
  16145.020    1.852144   55954.602
  16146.400   1.8695565   55977.602
  16147.607   1.8758871   55843.602
  16148.817   1.8742794   55636.602
  16150.024   1.8693454    111270.2
  16151.062   1.8593943   111176.19
  16152.271   1.8484767   111067.16
  16153.481   1.8355466   110912.09
  16154.517   1.8267637   110749.01
  16155.727   1.8171028   110759.91
  16156.937   1.8078282   110546.77
  16158.146   1.8015204   110443.62
  16159.528   1.7946373   110195.45
  16160.740   1.7876948   110040.24
  16162.122   1.7811327   109870.02
  16163.334   1.7745436   109711.77
  16164.718   1.7694397    109754.5
  16166.102   1.7636634    109673.2
  16167.486   1.7579157   109597.88
  16168.871   1.7534985   109532.54
  16170.257   1.7492416   109408.18
  16171.642   1.7445961   109537.79
  16173.200    1.737981   109510.37
  16174.586   1.7330088   109465.94
  16176.146   1.7267305   109658.48
  16177.705   1.7208772   109873.99
  16179.265   1.7161359   110205.48
  16180.825   1.7126453   110541.95
  16182.386   1.7103141    110787.4
  16183.946   1.7124403   111454.82
  16185.680   1.7168505   111924.21
  16187.242   1.7229345   112499.59
  16188.977   1.7311388   112831.94
  16190.539   1.7388315   113172.27
  16192.275    1.746014   113418.57
  16194.011   1.7533107   113634.85
  16195.748   1.7593856    113825.1
  16197.485   1.7632761   113974.34
  16199.396   1.7656266   114157.55
  16201.134   1.7657686   114497.73
  16203.046    1.761682   114655.89
  16204.785   1.7579753   114947.03
  16206.698   1.7536465   115249.14
  16208.612    1.747996   115313.23
  16210.525   1.7438188    115491.3
  16212.439   1.7386057   115830.34
  16214.355   1.7348256   116238.36
  16216.271    1.730166   116499.36
  16218.360   1.7265059   116821.33
  16220.276   1.7227565   117078.28
  16222.367    1.719802    117391.2
  16224.459   1.7163869   117758.11
  16226.551   1.7131936   118074.98
  16228.644   1.7094932   118427.84
  16230.738   1.7057717   118729.67
  16232.832   1.7027996   119182.48
  16234.925   1.6998949   119453.26
  16237.194   1.6968776   119926.02
  16239.290   1.6951069   120288.76
  16241.561   1.6927148   120547.47
  16243.832   1.6904745   120974.16
  16246.104   1.6884385   121487.82
  16248.377   1.6864682   121774.46
  16250.650    1.687001   122257.08
  16252.925   1.6890945   122644.67
  16255.199   1.6910884   123102.24
  16257.649   1.6941024   123425.79
  16259.925   1.6969501   123860.31
  16262.377   1.7011063   124458.81
  16264.830   1.7052385   124853.29
  16267.282   1.7107676   125257.74
  16269.737   1.7144739   125789.17
  16272.192   1.7164359   126202.58
  16274.646   1.7154981   126833.96
  16277.279   1.7132703   127338.32
  16279.736   1.7099316   127802.66
  16282.369   1.7053066   128300.96
  16284.828   1.7005218   128738.25
  16287.463   1.6958484   129302.52
  16290.099   1.6911737   129787.76
  16292.735   1.6862745   130327.97
  16295.373   1.6820529   130647.16
  16298.013   1.6787272   131330.33
  16300.827   1.6759734   131751.48
  16303.468   1.6733864   132537.59
  16306.286   1.6716434    133026.7
  16309.104   1.6710488   133698.77
  16311.748   1.6707137   134340.83
  16314.567   1.6708648   135047.84
  16317.388   1.6719069   135545.86
  16320.211   1.6743249   136231.83
  16323.212   1.6757404    136921.8
  16326.035   1.6763457   137485.72
  16328.861   1.6764928   138061.64
  16331.863   1.6759321   138603.52
  16334.867   1.6744906   139139.37
  16337.696    1.672088   139773.22
  16340.703   1.6690352   140248.03
  16343.710   1.6670514   140831.83
  16346.719   1.6652469   141469.59
  16349.905   1.6625801   142087.34
  16352.918   1.6619792   142632.06
  16355.929   1.6610396   143274.75
  16359.119   1.6588341   143954.42
  16362.312   1.6575528   144512.08
  16365.326   1.6561433    145300.7
  16368.521    1.654467    145995.3
  16371.717   1.6531293   146438.87
  16374.914   1.6514963   147275.44
  16378.111   1.6496059   148106.97
  16381.488   1.6482915   148786.47
  16384.689   1.6471918   149391.95
  16388.068   1.6461521   150025.42
  16391.271   1.6449853   150575.86
  16394.656   1.6434227   151199.27
  16398.039   1.6415646   151692.66
  16401.424   1.6406529   152343.03
  16404.813   1.6382471   152866.36
  16408.199   1.6357958   153594.69
  16411.590   1.6337846   154334.98
  16415.160   1.6329794   154900.25
  16418.553   1.6320425    155474.5
  16422.127    1.630474   156091.72
  16425.521   1.6286258   156626.92
  16429.098   1.6280753   157399.09
  16432.676   1.6277087   157924.25
  16436.254   1.6270079   158599.37
  16439.834   1.6260042   159133.48
  16443.416   1.6249068   159742.58
  16447.180   1.6235193   160389.62
  16450.766   1.6226016   160932.67
  16454.354   1.6210511   161498.67
  16458.121   1.6198865   161816.66
  16461.891   1.6186623   162325.62
  16465.662   1.6171827   162695.56
  16469.438   1.6154199   163495.48
  16473.211   1.6142101   164096.37
  16476.988   1.6126389   164450.25
  16480.768   1.6110781   165410.09
  16484.549   1.6086889   165673.92
  16488.510    1.606577   166559.72
  16492.295   1.6040671   167319.48
  16496.260   1.6020455   167615.25
  16500.229   1.5998899   168455.97
  16504.199   1.5983806   168936.67
  16508.172   1.5971826   169443.36
  16512.145   1.5961278   170249.02
  16516.121   1.5957169   170733.64
  16520.100    1.594181   170951.25
  16524.080   1.5927224   171770.84
  16528.242   1.5909826   172568.41
  16532.227   1.5895811   173028.94
  16536.393   1.5879542   173590.45
  16540.563   1.5858773   173909.95
  16544.734   1.5839802   174804.42
  16548.906   1.5820043   175354.86
  16553.084   1.5799376   175818.28
  16557.262   1.5782204   176553.69
  16561.441   1.5764205   176976.06
  16565.807   1.5752271   177542.41
  16569.990   1.5740482   178075.73
  16574.357   1.5723895   178512.03
  16578.549   1.5712858   179204.31
  16582.922   1.5693164   180017.56
  16587.297   1.5675085    180788.8
  16591.674   1.5656869   181396.02
  16596.055   1.5639416   181861.19
  16600.438   1.5620802   182126.36
  16604.822   1.5600389   182661.48
  16609.393   1.5579172   183558.61
  16613.783   1.5560545   183659.69
  16618.357   1.5539079   184383.77
  16622.754      1.5519    184817.8
  16627.332    1.550062   185129.83
  16631.916   1.5484148   185672.81
  16636.502   1.5464927    186382.8
  16641.090   1.5449349   186580.73
  16645.682   1.5433657   187032.66
  16650.273   1.5416575   187540.56
  16655.053    1.539663   188029.44
  16659.652   1.5385589    187826.3
  16664.254   1.5364132   188585.12
  16669.043    1.534742   188482.94
  16673.832   1.5328355   189595.72
  16678.625   1.5306109   190060.47
  16683.420   1.5287151    190483.2
  16688.221   1.5269076   190947.92
  16693.023   1.5251391   191394.61
  16697.828   1.5230486   191598.28
  16702.635   1.5210952   192274.92
  16707.445   1.5187612   192664.53
  16712.445   1.5166814   193182.12
  16717.260    1.514768    193437.7
  16722.264   1.5133635   193926.25
  16727.271   1.5113489   194230.77
  16732.281   1.5091806   194616.27
  16737.295   1.5074331   194841.75
  16742.313   1.5054111    195467.2
  16747.332   1.5038042   195801.62
  16752.355   1.5019542   196136.03
  16757.381   1.4997932   196474.41
  16762.596   1.4973005   196990.77
  16767.629   1.4953897   196757.11
  16772.852   1.4935619   197470.41
  16777.889   1.4922798    196829.7
  16783.117   1.4892036   197939.97
  16788.348   1.4874859    198608.2
  16793.584    1.485291   198723.42
  16798.822   1.4834377   198966.61
  16804.063   1.4819195   199252.78
  16809.309   1.4801462   199222.92
  16814.744   1.4778121   199611.05
  16819.996    1.476137   200014.14
  16825.438   1.4738867   200125.22
  16830.697   1.4717462   200570.27
  16836.146   1.4696423    200902.3
  16841.600   1.4681687    201328.3
  16847.059   1.4657828   201278.28
  16852.330   1.4636805   202036.23
  16857.982   1.4615417   201950.17
  16863.451   1.4590701   201951.08
  16868.922   1.4570169   202399.97
  16874.396   1.4553545   202753.83
  16880.064   1.4534205   202635.66
  16885.547   1.4510159   203040.47
  16891.223   1.4490516   202786.27
  16896.711   1.4467506   203012.03
  16902.396    1.444657   203226.78
  16908.082   1.4423855    203589.5
  16913.773   1.4402641   203946.19
  16919.469   1.4383523   203727.86
  16925.166   1.4361835   203793.52
  16930.869   1.4342275   203389.14
  16936.576   1.4317778   203818.73
  16942.287   1.4296505   203525.31
  16948.191    1.427493   203125.87
  16953.910   1.4246756   203499.41
  16959.822   1.4227977   203620.91
  16965.740   1.4206869   203126.39
  16971.471   1.4188916   203196.86
  16977.396   1.4167944    203085.3
  16983.326   1.4140219    202712.7
  16989.260   1.4117127   202828.09
  16995.197   1.4095003   203141.45
  17001.332   1.4076041    203193.8
