# XDI/1.0
# Column.1: energy eV
# Column.2: i0
# Column.3: itrans
# Column.4: irefer
# Beamline.name: SSRL 4-3
# Detector.I0: N2 15cm
# Detector.I1: Ar 30cm
# Detector.I2: Ar 15cm
# Element.edge: K
# Element.symbol: Cu
# Mono.d_spacing: 1.92009
# Mono.name: Si(220)
# Mono.notes: unfocused, detuned 50%,higher piezo, at E=9010eV
# Sample.formula: Cu3OH_2CO3_2
# Sample.name: Cu3(CO3)2(OH)2  azurite
# Sample.prep: powder, mixed with B(OH)3
# Sample.reference: Cu metal foil (?)
# Sample.temperature: 13K
# Scan.start_time: 1996-07-25 16:43:38
# ///
#    Note: mono d_spacing is nominal!
#     exafs to K15
#     432  E XMU XMUR I0
#-------------
#   energy   i0   itrans  irefer
    8759.9840  25833.900000  18256.198806  8669.799657
    8770.0220  25452.900000  18172.198758  8707.800084
    8779.9900  25164.900000  18132.198245  8757.799427
    8789.9810  24827.900000  18077.199008  8789.799671
    8799.9970  24499.900000  18013.198441  8838.800133
    8809.9880  24167.900000  17943.199880  8884.800487
    8820.0050  23837.900000  17878.199241  8925.799925
    8829.9970  23578.900000  17841.199195  8986.800092
    8840.0130  23266.900000  17787.199150  9028.799833
    8850.0040  22960.900000  17718.198395  9072.799481
    8860.0210  22649.900000  17653.199415  9116.800653
    8870.0110  22336.900000  17579.198849  9147.800057
    8879.9770  22021.900000  17489.199391  9180.800606
    8890.0150  21719.900000  17417.199430  9212.800641
    8899.9790  21415.900000  17333.198253  9233.799742
    8910.0170  21171.900000  17291.198776  9290.799698
    8919.9790  20862.900000  17191.198917  9303.800401
    8930.0160  20401.900000  16963.199015  9245.800364
    8940.0240  20077.900000  16833.199678  9236.800022
    8950.0090  19789.900000  16712.198578  9223.800059
    8960.0170  19479.900000  16535.198724  9154.800301
    8960.5230  19445.900000  16505.199474  9139.800435
    8960.9790  19431.900000  16501.199010  9131.800165
    8961.4840  19407.900000  16484.199230  9122.800230
    8961.9910  19350.900000  16433.199199  9102.799741
    8962.4980  19296.900000  16392.199169  9067.799859
    8963.0040  19241.900000  16353.199936  9064.800108
    8963.5110  19245.900000  16355.199369  9063.799935
    8964.0170  19235.900000  16340.199927  9056.799710
    8964.5230  19174.900000  16294.200258  9020.800092
    8964.9790  19141.900000  16268.199473  8998.800131
    8965.4850  19095.900000  16229.199407  8972.799761
    8965.9930  19129.900000  16254.200311  8983.800006
    8966.4990  19137.900000  16260.199317  8982.799321
    8967.0070  19146.900000  16268.200660  8984.800557
    8967.5130  19118.900000  16242.199692  8955.800067
    8968.0210  19042.900000  16181.199258  8911.799888
    8968.4770  19014.900000  16150.200789  8889.800269
    8968.9830  18983.900000  16120.200122  8856.800230
    8969.4910  18987.900000  16122.200484  8864.800492
    8969.9980  18953.900000  16080.200219  8832.800441
    8970.5060  18919.900000  16047.199979  8802.800225
    8971.0130  18875.900000  16007.199281  8769.799781
    8971.5200  18860.900000  15985.200031  8751.800023
    8971.9770  18840.900000  15959.199573  8714.800078
    8972.4840  18798.900000  15912.200746  8675.800146
    8972.9920  18770.900000  15873.200727  8633.800567
    8973.5000  18784.900000  15871.200152  8605.799665
    8974.0080  18755.900000  15828.200163  8554.800348
    8974.5150  18718.900000  15776.200527  8492.800534
    8975.0230  18694.900000  15726.200757  8412.800032
    8975.4800  18674.900000  15678.199433  8335.799865
    8975.9880  18691.900000  15638.200562  8226.800471
    8976.4960  18660.900000  15531.200338  8065.800202
    8977.0040  18655.900000  15429.200493  7855.800294
    8977.5130  18620.900000  15324.200423  7550.799909
    8978.0210  18601.900000  15272.200670  7123.800250
    8978.4790  18567.900000  15235.200660  6566.800210
    8978.9860  18562.900000  15219.199643  5856.799917
    8979.4950  18570.900000  15202.199776  5170.798573
    8980.0040  18545.900000  15128.199827  4609.800315
    8980.5120  18514.900000  15024.199683  4197.798467
    8981.0210  18499.900000  14883.199503  3945.801202
    8981.4780  18467.900000  14716.199442  3836.800783
    8981.9870  18472.900000  14508.199803  3790.799676
    8982.4950  18433.900000  14204.199507  3752.801624
    8983.0040  18414.900000  13821.199644  3692.798677
    8983.5140  18405.900000  13282.199634  3564.799337
    8984.0220  18392.900000  12523.199956  3346.800854
    8984.4800  18356.900000  11580.199797  3076.798861
    8984.9890  18353.900000  10373.200300  2749.801112
    8985.4990  18336.900000  9123.200031  2424.798973
    8986.0080  18298.900000  8021.200097  2138.800267
    8986.5170  18284.900000  7187.200119  1919.799364
    8986.9760  18260.900000  6671.202723  1776.800299
    8987.4850  18264.900000  6300.198780  1660.799620
    8987.9940  18262.900000  6058.199718  1561.799496
    8988.5030  18251.900000  5868.201416  1475.799954
    8989.0140  18211.900000  5656.199649  1385.799496
    8989.5220  18205.900000  5401.197657  1293.798826
    8989.9810  18162.900000  5093.198652  1209.799994
    8990.4910  18173.900000  4686.202247  1112.800153
    8991.0010  18152.900000  4220.199187  1027.799725
    8991.5120  18134.900000  3734.198704   947.800027
    8992.0210  18112.900000  3274.199434   877.799906
    8992.4790  18128.900000  2947.199360   832.800093
    8992.9890  18108.900000  2660.200591   796.800082
    8993.5000  18067.900000  2464.199192   774.799404
    8994.0110  18040.900000  2347.200643   761.800478
    8994.5210  18041.900000  2285.200646   758.799903
    8994.9790  18038.900000  2239.199727   757.800241
    8995.4900  18034.900000  2202.199799   760.799648
    8996.0000  18006.900000  2165.200610   762.800323
    8996.5110  17966.900000  2113.199556   759.800163
    8997.0210  17942.900000  2065.200866   758.800406
    8997.4810  17926.900000  2024.199630   758.799863
    8997.9920  17954.900000  1985.200781   758.800303
    8998.5020  17945.900000  1961.200286   757.800119
    8999.0140  17926.900000  1951.199630   756.799878
    8999.5240  17907.900000  1973.200722   753.800267
    8999.9830  17909.900000  2024.200145   753.800023
    9000.4940  17888.900000  2097.200602   756.800507
    9001.0060  17860.900000  2180.200764   758.800005
    9001.5170  17869.900000  2286.199274   759.799826
    9001.9780  17847.900000  2377.198882   764.799825
    9002.4870  17815.900000  2469.200260   766.800448
    9002.9990  17801.900000  2551.200909   767.800146
    9003.5110  17800.900000  2633.200477   775.800420
    9004.0220  17772.900000  2694.198682   783.799387
    9004.4820  17748.900000  2746.201110   793.800223
    9004.9930  17751.900000  2798.200557   802.800172
    9005.5060  17726.900000  2845.199704   813.799921
    9006.0170  17716.900000  2898.200382   825.799712
    9006.4780  17719.900000  2943.199638   834.799504
    9006.9890  17687.900000  2995.199349   843.799637
    9007.5020  17661.900000  3047.198906   852.800002
    9008.0130  17676.900000  3100.200238   861.799790
    9008.5240  17643.900000  3128.201112   870.800056
    9008.9850  17636.900000  3156.198503   876.799703
    9009.4980  17604.900000  3186.200918   885.800319
    9010.0100  17607.900000  3204.200691   891.800046
    9010.5210  17594.896000  3220.185157   897.795343
    9011.0850  17577.883000  3230.136719   898.779510
    9011.6480  17591.861000  3243.056833   900.754397
    9012.2130  17591.832000  3256.941951   901.718135
    9012.7760  17545.795000  3257.797391   899.670512
    9013.3920  17536.748000  3269.622599   896.615253
    9014.0070  17488.691000  3278.412933   894.546354
    9014.5700  17489.629000  3299.173811   898.470035
    9015.1850  17485.557000  3322.901097   897.382780
    9015.8530  17487.477000  3359.596995   899.285270
    9016.4680  17452.387000  3397.257302   892.176256
    9017.1350  17439.289000  3420.889652   891.057472
    9017.7500  17450.184000  3460.489984   888.929093
    9018.4170  17433.068000  3507.055731   886.789947
    9019.0850  17424.945000  3553.591564   885.641357
    9019.8030  17415.814000  3606.092024   884.480903
    9020.4700  17409.674000  3655.562678   883.310965
    9021.1890  17408.525000  3708.001413   882.129886
    9021.9080  17387.369000  3754.409527   879.940509
    9022.6270  17388.203000  3802.782318   880.738946
    9023.3460  17355.029000  3841.125107   876.527956
    9024.1170  17394.848000  3883.434997   876.306004
    9024.8370  17392.656000  3913.714990   877.073965
    9025.6080  17370.457000  3931.959451   878.831486
    9026.3790  17408.250000  3958.175678   879.579112
    9027.1490  17377.033000  3955.355138   883.316586
    9027.9220  17358.809000  3940.505840   887.043817
    9028.7440  17376.574000  3925.622657   897.759537
    9029.5670  17371.334000  3892.709234   902.465674
    9030.3920  17363.084000  3847.760702   906.161569
    9031.2140  17357.824000  3787.784774   908.847792
    9032.0380  17380.557000  3727.773609   912.523142
    9032.8610  17375.281000  3659.730695   912.187757
    9033.7370  17361.998000  3581.654322   909.843015
    9034.6130  17372.705000  3507.548275   909.487792
    9035.4890  17344.404000  3427.410152   903.121592
    9036.3650  17327.094000  3354.240625   897.746453
    9037.2410  17305.775000  3279.035292   894.359250
    9038.1690  17244.449000  3198.798577   884.961883
    9039.0460  17050.115000  3104.531904   876.554803
    9039.9740  17268.771000  3094.231977   872.137421
    9040.9020  17465.418000  3093.901177   869.709363
    9041.8830  17420.059000  3056.539392   866.272598
    9042.8120  17481.689000  3044.141702   867.823427
    9043.7920  17495.313000  3025.713757   865.364924
    9044.7740  17516.926000  3011.254031   864.895675
    9045.7550  17494.531000  2987.764108   865.417108
    9046.7370  17483.129000  2977.238993   863.928178
    9047.7190  17500.717000  2971.684166   865.427955
    9048.7530  17493.297000  2965.094130   860.917825
    9049.7340  17520.869000  2972.474244   859.396986
    9050.7680  17501.432000  2977.823624   857.866064
    9051.8030  17474.986000  2980.137639   856.324819
    9052.8370  17501.533000  3002.422543   860.773803
    9053.9240  17534.070000  3025.673906   866.212383
    9054.9590  17560.600000  3046.891091   867.640133
    9056.0460  17539.121000  3057.078960   866.057368
    9057.1340  17544.633000  3080.235611   867.465178
    9058.2220  17569.137000  3110.357848   869.863291
    9059.3610  17585.633000  3127.447767   871.248762
    9060.4500  17582.119000  3145.508051   871.626232
    9061.5900  17603.598000  3155.532663   870.991826
    9062.7300  17603.066000  3160.527966   867.348078
    9063.8720  17604.529000  3162.491602   869.693175
    9065.0140  17639.982000  3167.422071   868.029161
    9066.1550  17659.426000  3167.319643   868.353570
    9067.3490  17653.861000  3169.188347   864.668150
    9068.5430  17662.289000  3170.022868   862.973584
    9069.6860  17685.709000  3177.824720   863.267140
    9070.9330  17693.119000  3190.593045   858.550143
    9072.1280  17716.521000  3207.332498   858.823881
    9073.3230  17707.914000  3225.037759   865.086877
    9074.5710  17714.299000  3250.712381   873.340440
    9075.8190  17744.676000  3289.355100   883.582624
    9077.0680  17754.045000  3319.965453   891.814950
    9078.3170  17760.404000  3359.541429   902.035399
    9079.5660  17791.754000  3401.087017   916.248275
    9080.8680  17832.098000  3459.600403   928.448925
    9082.1190  17847.432000  3502.081942   937.639842
    9083.4220  17852.758000  3547.531488   945.820954
    9084.7250  17868.074000  3588.949513   957.991422
    9086.0800  17899.383000  3625.333351   969.151089
    9087.3840  17909.684000  3651.688167   973.301452
    9088.6880  17934.975000  3677.009247   976.441652
    9090.0460  17953.258000  3702.297610   984.570870
    9091.4030  17963.533000  3713.551731   994.688912
    9092.7610  17997.799000  3726.779562  1002.797378
    9094.1180  18041.057000  3730.969446  1010.895028
    9095.5290  18021.307000  3719.130038  1013.982635
    9096.9400  18032.547000  3710.261250  1019.061690
    9098.3000  18062.779000  3713.357345  1020.128309
    9099.7130  18047.004000  3695.421746  1025.185619
    9101.1250  18081.219000  3691.451626  1025.231843
    9102.5900  18101.426000  3679.451601  1022.268032
    9104.0050  18135.625000  3678.419719  1016.293551
    9105.4710  18118.814000  3661.357008  1009.309916
    9106.9380  18140.996000  3646.261330  1002.316027
    9108.4050  18202.168000  3652.134196   998.311136
    9109.8730  18205.334000  3649.972481   994.295958
    9111.3420  18264.490000  3660.781824   994.270216
    9112.8630  18210.637000  3648.553815   991.234517
    9114.3330  18244.775000  3655.298423   993.189038
    9115.8550  18284.906000  3668.008643   996.131413
    9117.3790  18298.029000  3668.688896  1001.065917
    9118.9560  18333.143000  3687.336990  1003.989451
    9120.4790  18364.248000  3696.952128  1005.901074
    9122.0050  18350.344000  3694.533597  1000.803644
    9123.5830  18374.432000  3701.085419   995.695424
    9125.1610  18455.512000  3712.606087   991.578738
    9126.7400  18451.584000  3710.090317   984.448415
    9128.3200  18420.646000  3697.545055   973.309753
    9129.9530  18470.699000  3706.969286   971.160665
    9131.5340  18503.746000  3706.359760   973.002330
    9133.1680  18527.783000  3714.716598   971.831726
    9134.8030  18508.813000  3717.044997   973.652317
    9136.4390  18535.832000  3724.340256   981.462693
    9138.0740  18554.844000  3725.599904   987.260727
    9139.7640  18602.848000  3741.829591   995.049979
    9141.4010  18611.842000  3750.030768  1004.829670
    9143.0930  18575.828000  3745.196800  1013.597786
    9144.7840  18507.807000  3742.330864  1025.355768
    9146.4760  18614.775000  3769.429336  1039.102771
    9148.1690  18896.736000  3831.499377  1061.841016
    9149.9150  18867.689000  3831.536441  1077.567173
    9151.6090  18828.633000  3831.543571  1090.285669
    9153.3570  18905.568000  3856.517144  1109.991638
    9155.1060  18826.496000  3848.456810  1123.688120
    9156.8550  18810.414000  3851.368935  1135.374614
    9158.6050  18884.324000  3876.246002  1145.049835
    9160.4090  18892.227000  3894.088242  1146.714122
    9162.1600  19060.119000  3937.902187  1158.369186
    9163.9670  19159.004000  3969.685164  1155.015528
    9165.7720  19139.879000  3990.434268  1144.649028
    9167.5800  19119.748000  4003.150706  1137.273496
    9169.4390  19128.607000  4029.833110  1126.886999
    9171.2490  19157.457000  4052.488105  1125.491737
    9173.1100  19154.299000  4079.107365  1123.083673
    9174.9210  19197.133000  4110.694305  1127.667054
    9176.7850  19217.959000  4138.250883  1128.239222
    9178.6490  19247.775000  4170.777502  1133.801867
    9180.5680  19255.584000  4194.269113  1142.354058
    9182.4360  19289.383000  4226.730830  1149.896388
    9184.3560  19305.174000  4255.159059  1156.427074
    9186.2240  19352.957000  4287.553216  1162.948074
    9188.1460  19401.732000  4318.915549  1171.458250
    9190.0690  19434.498000  4333.249551  1177.959535
    9191.9930  19433.254000  4342.549953  1181.450265
    9193.9720  19482.004000  4356.814485  1185.928685
    9195.8970  19515.744000  4372.052264  1195.399602
    9197.8770  19548.477000  4391.256394  1200.858095
    9199.8580  19578.199000  4407.425144  1202.306327
    9201.8410  19596.914000  4416.564383  1201.745526
    9203.8240  19623.621000  4435.671412  1193.174012
    9205.8610  19637.318000  4437.746646  1187.592009
    9207.8460  19668.008000  4446.789416  1184.999504
    9209.8860  19721.689000  4454.803689  1190.397154
    9211.9260  19759.361000  4453.780801  1191.785203
    9213.9670  19772.025000  4452.728525  1198.161214
    9216.0090  19761.682000  4446.640246  1202.527763
    9218.0530  19780.328000  4454.522661  1208.883140
    9220.1500  19824.967000  4475.374802  1215.229688
    9222.1960  19852.598000  4501.194834  1227.566654
    9224.2960  19905.219000  4533.979173  1244.890979
    9226.3970  19931.832000  4556.733603  1264.205740
    9228.4990  19940.438000  4576.455225  1272.509239
    9230.6030  19967.033000  4584.144784  1287.804156
    9232.7610  19992.621000  4601.803332  1304.088404
    9234.8650  19851.199000  4579.429414  1302.363132
    9237.0250  19861.771000  4592.023740  1314.625493
    9239.1880  19920.334000  4621.586383  1322.878467
    9241.3500  19887.887000  4633.116969  1325.122427
    9243.5130  19930.432000  4667.613018  1336.355069
    9245.7310  19943.969000  4687.080021  1336.576898
    9247.8970  19983.498000  4707.513423  1342.789052
    9250.1180  20014.018000  4720.911654  1347.989102
    9252.3410  20033.529000  4724.280716  1355.181400
    9254.5630  20045.031000  4726.619685  1356.362240
    9256.7880  20092.525000  4738.922814  1357.532692
    9259.0140  20109.012000  4741.199073  1358.694175
    9261.2940  20151.490000  4755.440025  1361.844773
    9263.5210  20144.959000  4759.644989  1362.983550
    9265.8060  20154.420000  4768.823454  1362.112249
    9268.0900  20194.871000  4784.969550  1367.232551
    9270.3760  20224.314000  4815.084257  1369.342290
    9272.6620  20234.750000  4836.161964  1378.439998
    9275.0060  20250.176000  4869.208922  1386.527590
    9277.2950  20331.594000  4927.225402  1395.605025
    9279.6410  20326.004000  4966.210386  1401.673741
    9281.9860  20341.404000  5005.165178  1407.731319
    9284.3350  20361.797000  5039.084653  1410.778175
    9286.6840  20388.182000  5056.969644  1416.815035
    9289.0340  20425.557000  5077.829522  1422.841475
    9291.4400  20444.924000  5094.653398  1422.858159
    9293.7930  20458.283000  5107.442742  1430.863112
    9296.2010  20486.633000  5122.203024  1436.859206
    9298.6110  20498.975000  5123.930831  1446.844365
    9301.0230  20539.309000  5144.625421  1459.819156
    9303.4370  20587.633000  5179.287796  1469.782684
    9305.8510  20581.949000  5211.920623  1482.736593
    9308.3210  20591.258000  5240.519406  1492.680679
    9310.7380  20628.557000  5282.087492  1505.614888
    9313.2110  20657.848000  5324.619724  1519.537931
    9315.6860  20697.131000  5376.126275  1534.451659
    9318.1620  20702.404000  5412.595994  1545.353719
    9320.6940  20733.670000  5443.035758  1554.248189
    9323.1740  20769.926000  5460.438375  1561.128684
    9325.6540  20765.174000  5468.816639  1568.002093
    9328.1890  20777.414000  5478.155909  1570.862028
    9330.7290  20826.646000  5494.470509  1579.713063
    9333.2690  20826.869000  5499.746124  1589.553139
    9335.8100  20842.084000  5511.992714  1602.385108
    9338.3530  20890.289000  5534.207686  1620.204555
    9340.9520  20918.486000  5558.388709  1630.015079
    9343.4980  20956.676000  5566.537679  1640.813670
    9346.1010  21031.857000  5606.660625  1652.604103
    9348.7050  21047.029000  5615.745844  1656.383167
    9351.3110  21119.193000  5632.797711  1663.151419
    9353.9190  21148.348000  5643.818039  1664.911208
    9356.5270  21203.494000  5684.811558  1677.660024
    9359.1930  21245.633000  5690.768886  1686.397115
    9361.8060  21290.762000  5718.692925  1690.124627
    9364.4750  21313.883000  5743.585371  1695.840765
    9367.1450  21354.996000  5781.445379  1707.546794
    9369.8170  21408.100000  5828.276643  1719.245196
    9372.4920  21469.195000  5875.070835  1730.930486
    9375.1670  21527.283000  5920.838678  1744.606637
    9377.9000  21676.361000  5991.568985  1764.272302
    9380.5790  21911.432000  6087.274897  1791.928671
    9383.3160  21939.494000  6131.941321  1802.573546
    9386.0540  21977.547000  6155.576022  1809.208291
    9388.7930  21985.592000  6178.183707  1812.833933
    9391.5350  22003.629000  6194.751457  1823.446505
    9394.2790  22076.656000  6230.295483  1830.050863
    9397.0800  22090.676000  6248.801086  1842.644225
    9399.8270  22072.688000  6264.282190  1849.229391
    9402.6310  22110.689000  6294.726106  1864.800649
    9405.4380  22132.684000  6318.137277  1875.363355
    9408.2460  22148.670000  6357.514185  1887.913875
    9411.0560  22159.646000  6379.864680  1903.457343
    9413.8680  22224.615000  6416.177006  1922.988446
    9416.6820  22210.574000  6427.460289  1935.509273
    9419.5530  22211.525000  6439.715089  1944.022536
    9422.3700  22242.469000  6485.938199  1951.523753
    9425.2450  22246.404000  6514.121622  1958.013380
    9428.1220  22228.330000  6520.275316  1965.492011
    9431.0020  22284.248000  6570.402285  1984.962577
    9433.8820  22300.156000  6586.490609  1994.422778
    9436.8220  22300.057000  6607.551982  2003.871851
    9439.7060  22315.949000  6634.581722  2010.311378
    9442.6500  22356.834000  6675.573019  2016.739395
    9445.5950  22365.709000  6710.536732  2030.158640
    9448.4860  22364.576000  6720.471250  2036.566453
    9451.4350  22384.434000  6740.369913  2042.964229
    9454.4430  22375.283000  6763.232202  2052.350891
    9457.3960  22411.125000  6802.066665  2061.728044
    9460.3510  22411.957000  6825.868673  2055.094045
    9463.3650  22420.781000  6858.640553  2069.452857
    9466.3800  22429.598000  6900.379609  2118.799015
    9469.3420  22432.404000  6923.085285  2120.134480
    9472.3620  22452.203000  6975.763182  2130.459616
    9475.3840  22490.994000  6998.402876  2142.775524
    9478.4650  22504.777000  7034.014516  2158.081425
    9481.4910  22527.551000  7079.590372  2167.375631
    9484.5210  22520.314000  7093.137351  2178.659428
    9487.6070  22514.070000  7130.650376  2193.934368
    9490.6970  22542.818000  7161.128090  2201.195282
    9493.7310  22557.559000  7190.582764  2207.450480
    9496.8250  22573.289000  7205.994900  2211.693042
    9499.9790  22587.012000  7227.383320  2223.925885
    9503.0770  22599.727000  7252.736360  2239.148874
    9506.1780  22602.432000  7285.058801  2250.360692
    9509.3380  22604.129000  7298.344844  2258.562590
    9512.4430  22624.818000  7317.607610  2268.755505
    9515.6060  22644.498000  7345.830758  2278.936550
    9518.7730  22630.170000  7360.022367  2293.107700
    9521.9420  22622.832000  7377.181549  2310.268293
    9525.1140  22634.488000  7389.312953  2317.418292
    9528.2870  22616.133000  7404.408019  2325.556816
    9531.5210  22724.771000  7461.470875  2353.685889
    9534.6990  22693.400000  7478.506702  2363.808604
    9537.9380  22777.021000  7521.504443  2379.915962
    9541.1780  22740.633000  7541.471517  2387.014267
    9544.4210  22742.238000  7581.407742  2401.102244
    9547.6660  22756.832000  7611.318441  2417.182022
    9550.9130  22751.420000  7643.186222  2431.250079
    9554.1630  22756.998000  7674.028476  2442.308510
    9557.4150  22762.568000  7703.836353  2457.354666
    9560.7280  22771.129000  7744.612665  2472.392886
    9563.9840  22796.682000  7784.355380  2481.420055
    9567.3030  22802.227000  7821.068692  2500.436225
    9570.6220  22793.762000  7844.745166  2515.442927
    9573.9450  22800.289000  7880.396433  2528.439240
    9577.2700  22823.809000  7912.005152  2541.420675
    9580.5980  22823.320000  7938.591132  2555.397580
    9583.9860  22826.822000  7981.147899  2563.363461
    9587.3180  22832.314000  8007.661839  2575.317463
    9590.7120  22833.801000  8036.148597  2598.262463
    9594.1070  22831.277000  8081.604214  2610.196208
    9597.4460  22856.744000  8116.030793  2625.121593
    9600.8480  22822.205000  8138.419248  2635.033685
    9604.3110  22862.656000  8178.778707  2659.935401
    9607.7170  22841.098000  8199.100533  2671.826864
    9611.1250  22839.531000  8232.393926  2681.710535
    9614.5360  22871.957000  8270.662172  2699.583697
    9618.0100  22887.375000  8294.888224  2713.443381
    9621.4850  22877.783000  8318.086704  2726.296964
    9624.9040  22883.184000  8343.254079  2741.138425
    9628.3850  22877.576000  8363.393091  2748.969782
    9631.8680  22888.959000  8387.492890  2766.789588
    9635.4130  22897.334000  8437.562677  2782.599282
    9638.9020  22900.699000  8470.600760  2800.400476

