#XDI/1.1  GSE/2.0
# Column.1: energy eV
# Column.2: itrans
# Column.3: i0
# Element.symbol:  Cu
# Element.edge:  K
# Mono.d_spacing:  3.13477
# Mono.name: Si 111
# Sample.formula: Cu
# Sample.name: Cu
# Sample.prep: metal foil
# Sample.temperature: room temperature
# Facility.Name:  APS
# Beamline.Name:  13-ID-E
# Beamline.xray_source:  3.6cm undulator
# Beamline.Storage_Ring_Current: 102.1
# Beamline.I0: He,  20 cm
# Beamline.I1: N2,  10 cm
# Scan.start_time: 2016-07-05 18:41:13
# Scan.end_time: 2016-07-05 18:49:43
# ScanParameters.Start: Scan.Member: Value
# ScanParameters.ScanType: xafs
# ScanParameters.E0: 8979.000
# ScanParameters.Legend:  Start, Stop, Step, K-space, Time
# ScanParameters.Region1:   -100.000,   -10.000,     5.000  False  0.50
# ScanParameters.Region2:    -10.000,    20.000,     0.100  False  0.50
# ScanParameters.Region3:      2.291,    13.000,     0.050  True  0.50
# ScanParameters.End: here
#-------------------------
#  energy  itrans  i0
    8879.000    174208.25    107386.05
    8884.000    172756.25    106380.05
    8889.000    171203.25    105327.05
    8894.000    169764.25    104329.05
    8899.000    170287.25    104541.05
    8904.000    170534.25    104615.05
    8909.000    169397.25    103831.05
    8914.000    167640.25    102677.05
    8919.000    167658.25    102591.05
    8924.000    166369.25    101736.05
    8929.000    167700.25    102448.05
    8934.000    167656.25    102399.05
    8939.000    165801.25    101264.05
    8944.000    164753.25    100684.05
    8949.000    166005.25    101513.05
    8954.000    164368.25    100674.05
    8959.000    163271.25    100263.05
    8964.000    162157.25    100067.05
    8969.000    159287.25     99292.05
    8969.100    161590.25    100732.05
    8969.200    162958.25    101640.05
    8969.300    162961.25    101686.05
    8969.400    162784.25    101619.05
    8969.500    162840.25    101676.05
    8969.600    162672.25    101595.05
    8969.700    162585.25    101571.05
    8969.800    162437.25    101511.05
    8969.900    162590.25    101675.05
    8970.000    162311.25    101551.05
    8970.100    161916.25    101316.05
    8970.200    161859.25    101320.05
    8970.300    161926.25    101413.05
    8970.400    161745.25    101312.05
    8970.500    161728.25    101356.05
    8970.600    161539.25    101296.05
    8970.700    161629.25    101421.05
    8970.800    161535.25    101375.05
    8970.900    161560.25    101447.05
    8971.000    161539.25    101431.05
    8971.100    161468.25    101467.05
    8971.200    161080.25    101248.05
    8971.300    161025.25    101280.05
    8971.400    160914.25    101239.05
    8971.500    160678.25    101136.05
    8971.600    160569.25    101137.05
    8971.700    160711.25    101269.05
    8971.800    160514.25    101203.05
    8971.900    160440.25    101214.05
    8972.000    160556.25    101363.05
    8972.100    160457.25    101343.05
    8972.200    159871.25    100994.05
    8972.300    159911.25    101113.05
    8972.400    159837.25    101128.05
    8972.500    159937.25    101231.05
    8972.600    159656.25    101130.05
    8972.700    158998.25    100790.05
    8972.800    158663.25    100628.05
    8972.900    158711.25    100726.05
    8973.000    158136.25    100430.05
    8973.100    157619.25    100172.05
    8973.200    157689.25    100300.05
    8973.300    157482.25    100257.05
    8973.400    157560.25    100370.05
    8973.500    157497.25    100419.05
    8973.600    157309.25    100405.05
    8973.700    157334.25    100501.05
    8973.800    157159.25    100479.05
    8973.900    157336.25    100680.05
    8974.000    156855.25    100489.05
    8974.100    156429.25    100290.05
    8974.200    156290.25    100316.05
    8974.300    155969.25    100207.05
    8974.400    155974.25    100321.05
    8974.500    156382.25    100717.05
    8974.600    156214.25    100723.05
    8974.700    156284.25    100893.05
    8974.800    155985.25    100841.05
    8974.900    155930.25    100963.05
    8975.000    155269.25    100650.05
    8975.100    155212.25    100779.05
    8975.200    154782.25    100663.05
    8975.300    154420.25    100598.05
    8975.400    154161.25    100595.05
    8975.500    153930.25    100616.05
    8975.600    153850.25    100754.05
    8975.700    153278.25    100594.05
    8975.800    153164.25    100713.05
    8975.900    152376.25    100417.05
    8976.000    152837.25    100926.05
    8976.100    152236.25    100761.05
    8976.200    151761.25    100705.05
    8976.300    151188.25    100569.05
    8976.400    150289.25    100244.05
    8976.500    150225.25    100494.05
    8976.600    149387.25    100192.05
    8976.700    149235.25    100410.05
    8976.800    148950.25    100568.05
    8976.900    148537.25    100632.05
    8977.000    148021.25    100635.05
    8977.100    147401.25    100633.05
    8977.200    146929.25    100755.05
    8977.300    146261.25    100736.05
    8977.400    145044.25    100401.05
    8977.500    144263.25    100384.05
    8977.600    143554.25    100409.05
    8977.700    142716.25    100433.05
    8977.800    141791.25    100459.05
    8977.900    140491.25    100262.05
    8978.000    139508.25    100365.05
    8978.100    138197.25    100292.05
    8978.200    136809.25    100223.05
    8978.300    135415.25    100251.05
    8978.400    134063.25    100408.05
    8978.500    132279.25    100369.05
    8978.600    130204.25    100152.05
    8978.700    127976.25    100060.05
    8978.800    125671.25    100048.05
    8978.900    123074.25    100022.05
    8979.000    120207.25     99955.05
    8979.100    117003.25     99917.05
    8979.200    113402.25     99732.05
    8979.300    109867.25     99815.05
    8979.400    105876.25     99748.05
    8979.500    101733.25     99610.05
    8979.600     97556.25     99859.05
    8979.700     93020.25     99805.05
    8979.800     85721.25     96762.05
    8979.900     84245.25    100252.05
    8980.000     79885.25    100360.05
    8980.100     75360.25    100206.05
    8980.200     71138.25    100075.05
    8980.300     67419.25    100169.05
    8980.400     64139.25    100256.05
    8980.500     60887.25    100102.05
    8980.600     58130.25    100076.05
    8980.700     55783.25    100195.05
    8980.800     53708.25    100124.05
    8980.900     51881.25     99932.05
    8981.000     50435.25     99906.05
    8981.100     49070.25     99609.05
    8981.200     48028.25     99430.05
    8981.300     47217.25     99480.05
    8981.400     46588.25     99624.05
    8981.500     45963.25     99550.05
    8981.600     45656.25     99866.05
    8981.700     45341.25     99986.05
    8981.800     44939.25     99694.05
    8981.900     44837.25     99882.05
    8982.000     44715.25     99843.05
    8982.100     44750.25    100011.05
    8982.200     44746.25     99967.05
    8982.300     44782.25     99875.05
    8982.400     45002.25    100066.05
    8982.500     45164.25     99984.05
    8982.600     45335.25     99852.05
    8982.700     45654.25     99954.05
    8982.800     45873.25     99818.05
    8982.900     46223.25     99891.05
    8983.000     46513.25     99810.05
    8983.100     46873.25     99845.05
    8983.200     47160.25     99775.05
    8983.300     47467.25     99755.05
    8983.400     47855.25     99928.05
    8983.500     48099.25     99869.05
    8983.600     48265.25     99729.05
    8983.700     48572.25     99940.05
    8983.800     48630.25     99690.05
    8983.900     48772.25     99790.05
    8984.000     48753.25     99665.05
    8984.100     48731.25     99652.05
    8984.200     48688.25     99716.05
    8984.300     48471.25     99573.05
    8984.400     48366.25     99746.05
    8984.500     48093.25     99776.05
    8984.600     47819.25     99861.05
    8984.700     47374.25     99753.05
    8984.800     47058.25     99989.05
    8984.900     46550.25     99933.05
    8985.000     46016.25     99882.05
    8985.100     45492.25     99798.05
    8985.200     44923.25     99732.05
    8985.300     44466.25     99961.05
    8985.400     43864.25     99811.05
    8985.500     43341.25     99859.05
    8985.600     42793.25     99826.05
    8985.700     42305.25     99861.05
    8985.800     41848.25     99860.05
    8985.900     41368.25     99866.05
    8986.000     40999.25    100064.05
    8986.100     40602.25    100200.05
    8986.200     40150.25    100087.05
    8986.300     39778.25    100132.05
    8986.400     39409.25    100200.05
    8986.500     39008.25    100131.05
    8986.600     37543.25     97213.05
    8986.700     38433.25    100476.05
    8986.800     38114.25    100584.05
    8986.900     37800.25    100712.05
    8987.000     37368.25    100561.05
    8987.100     36929.25    100369.05
    8987.200     36472.25    100159.05
    8987.300     36064.25    100013.05
    8987.400     35732.25    100184.05
    8987.500     35323.25    100168.05
    8987.600     34845.25     99934.05
    8987.700     34401.25     99859.05
    8987.800     33956.25     99777.05
    8987.900     33547.25     99793.05
    8988.000     33003.25     99504.05
    8988.100     32678.25     99871.05
    8988.200     32225.25     99910.05
    8988.300     31701.25     99715.05
    8988.400     31257.25     99809.05
    8988.500     30799.25     99882.05
    8988.600     30322.25     99850.05
    8988.700     29816.25     99837.05
    8988.800     29274.25     99705.05
    8988.900     28846.25     99984.05
    8989.000     28351.25    100039.05
    8989.100     27808.25     99952.05
    8989.200     27319.25    100111.05
    8989.300     26785.25     99984.05
    8989.400     26340.25    100329.05
    8989.500     25796.25    100259.05
    8989.600     25232.25    100148.05
    8989.700     24745.25    100367.05
    8989.800     24164.25    100175.05
    8989.900     23609.25    100042.05
    8990.000     23041.25     99915.05
    8990.100     22539.25    100069.05
    8990.200     21999.25    100057.05
    8990.300     21441.25     99950.05
    8990.400     20940.25    100043.05
    8990.500     20497.25    100227.05
    8990.600     19958.25    100159.05
    8990.700     19513.25    100478.05
    8990.800     19045.25    100573.05
    8990.900     18525.25    100402.05
    8991.000     18040.25    100325.05
    8991.100     17611.25    100498.05
    8991.200     17198.25    100535.05
    8991.300     16753.25    100457.05
    8991.400     16357.25    100576.05
    8991.500     15978.25    100721.05
    8991.600     15513.25    100219.05
    8991.700     15151.25    100272.05
    8991.800     14808.25    100212.05
    8991.900     14507.25    100472.05
    8992.000     14138.25    100196.05
    8992.100     13832.25    100221.05
    8992.200     13539.25    100259.05
    8992.300     13264.25    100294.05
    8992.400     13011.25    100309.05
    8992.500     12762.25    100385.05
    8992.600     12503.25    100272.05
    8992.700     12275.25    100296.05
    8992.800     12064.25    100395.05
    8992.900     11840.25    100186.05
    8993.000     11612.25     99853.05
    8993.100     11415.25     99706.05
    8993.200     11251.25     99747.05
    8993.300     11111.25     99866.05
    8993.400     10995.25    100113.05
    8993.500     10868.25    100196.05
    8993.600     10727.25     99922.05
    8993.700     10616.25     99904.05
    8993.800     10509.25     99766.05
    8993.900     10418.25     99666.05
    8994.000     10329.25     99491.05
    8994.100     10264.25     99359.05
    8994.200     10221.25     99401.05
    8994.300     10185.25     99346.05
    8994.400     10131.25     99010.05
    8994.500     10148.25     99250.05
    8994.600     10120.25     98949.05
    8994.700     10148.25     99101.05
    8994.800     10172.25     99102.05
    8994.900     10255.25     99546.05
    8995.000     10306.25     99662.05
    8995.100     10366.25     99761.05
    8995.200     10413.25     99610.05
    8995.300     10477.25     99634.05
    8995.400     10543.25     99559.05
    8995.500     10605.25     99369.05
    8995.600     10694.25     99380.05
    8995.700     10786.25     99378.05
    8995.800     10873.25     99376.05
    8995.900     10964.25     99291.05
    8996.000     11056.25     99149.05
    8996.100     11152.25     99072.05
    8996.200     11266.25     99137.05
    8996.300     11372.25     99069.05
    8996.400     11488.25     99159.05
    8996.500     11606.25     99195.05
    8996.600     11739.25     99350.05
    8996.700     11872.25     99509.05
    8996.800     11976.25     99403.05
    8996.900     12091.25     99485.05
    8997.000     12175.25     99228.05
    8997.100     12308.25     99412.05
    8997.200     12433.25     99558.05
    8997.300     12524.25     99418.05
    8997.400     12638.25     99557.05
    8997.500     12764.25     99753.05
    8997.600     12882.25     99925.05
    8997.700     12987.25     99990.05
    8997.800     13060.25     99893.05
    8997.900     13143.25     99860.05
    8998.000     13213.25     99755.05
    8998.100     13268.25     99592.05
    8998.200     13322.25     99453.05
    8998.300     13395.25     99480.05
    8998.400     13416.25     99178.05
    8998.500     13478.25     99268.05
    8998.600     13565.25     99537.05
    8998.700     13623.25     99634.05
    8998.800     13655.25     99611.05
    8998.900     13693.25     99664.05
    8999.000     13676.25     99354.05
    8999.885     13481.25     98771.05
    9000.791     12438.25     96613.05
    9001.717     11448.25     98911.05
    9002.662     10259.25     99092.05
    9003.627      9718.25     98856.05
    9004.610     10008.25     98736.05
    9005.613     10857.25     98527.05
    9006.635     11563.25     95904.05
    9007.677     12721.25     98470.05
    9008.737     13418.25     98612.05
    9009.817     13912.25     96931.05
    9010.917     14756.25     98079.05
    9012.035     15194.25     99044.05
    9013.173     15115.25     99047.05
    9014.330     14879.25     99005.05
    9015.506     14460.25     98467.05
    9016.702     13772.25     97207.05
    9017.916     13359.25     99225.05
    9019.150     12621.25     99358.05
    9020.404     11932.25     99234.05
    9021.676     11311.25     99018.05
    9022.968     10721.25     98980.05
    9024.279     10181.25     98674.05
    9025.610      9854.25     98521.05
    9026.959      9832.25     98387.05
    9028.328     10199.25     98358.05
    9029.716     10823.25     98224.05
    9031.124     11563.25     98368.05
    9032.550     12316.25     98375.05
    9033.996     12975.25     98669.05
    9035.461     13349.25     98577.05
    9036.946     13485.25     98295.05
    9038.449     13479.25     98358.05
    9039.972     13272.25     98323.05
    9041.515     12987.25     98105.05
    9043.076     12816.25     97947.05
    9044.657     12865.25     98025.05
    9046.257     12944.25     97805.05
    9047.876     12892.25     97884.05
    9049.515     12641.25     97955.05
    9051.173     12357.25     97975.05
    9052.850     12198.25     97596.05
    9054.546     12159.25     97218.05
    9056.261     12091.25     97212.05
    9057.996     11881.25     97436.05
    9059.750     11544.25     97545.05
    9061.524     11232.25     97577.05
    9063.316     11013.25     97472.05
    9065.128     10816.25     97318.05
    9066.959     10584.25     97248.05
    9068.810     10281.25     97107.05
    9070.680      9949.25     96752.05
    9072.568      9831.25     97325.05
    9074.477      9891.25     97271.05
    9076.404     10159.25     97016.05
    9078.351     10536.25     95875.05
    9080.317     11217.25     97079.05
    9082.302     11743.25     97141.05
    9084.307     12224.25     97177.05
    9086.330     12656.25     97360.05
    9088.373     12864.25     97061.05
    9090.436     13002.25     96821.05
    9092.517     13258.25     96000.05
    9094.618     14015.25     97334.05
    9096.738     14536.25     97313.05
    9098.877     14852.25     97406.05
    9101.036     14753.25     97172.05
    9103.214     14377.25     96993.05
    9105.411     13806.25     96877.05
    9107.627     13303.25     97169.05
    9109.863     12853.25     97250.05
    9112.118     12526.25     97221.05
    9114.392     12354.25     96989.05
    9116.685     12360.25     97058.05
    9118.998     12390.25     97039.05
    9121.330     12284.25     97127.05
    9123.681     11841.25     96728.05
    9126.052     11134.25     96540.05
    9128.442     10434.25     96725.05
    9130.851      9955.25     96399.05
    9133.279      9856.25     96415.05
    9135.726      9986.25     96506.05
    9138.193     10204.25     96267.05
    9140.679     10484.25     96107.05
    9143.184     10962.25     96226.05
    9145.709     11571.25     96007.05
    9148.253     12368.25     95985.05
    9150.816     13229.25     95734.05
    9153.398     13623.25     91857.05
    9156.000     15161.25     95909.05
    9158.621     15766.25     95759.05
    9161.261     15663.25     94451.05
    9163.920     15421.25     95633.05
    9166.599     13966.25     91391.05
    9169.297     13722.25     95272.05
    9172.014     13078.25     95324.05
    9174.750     12583.25     94228.05
    9177.506     12622.25     95546.05
    9180.281     12642.25     95322.05
    9183.075     12747.25     95112.05
    9185.889     12844.25     95123.05
    9188.722     12862.25     94872.05
    9191.574     12979.25     95208.05
    9194.445     13077.25     94836.05
    9197.335     13236.25     94989.05
    9200.245     13126.25     94890.05
    9203.174     12722.25     94894.05
    9206.123     12188.25     94790.05
    9209.090     11870.25     94803.05
    9212.077     11788.25     94679.05
    9215.083     11861.25     94731.05
    9218.109     11979.25     94330.05
    9221.153     12246.25     94105.05
    9224.217     12704.25     94239.05
    9227.300     13274.25     94232.05
    9230.403     13823.25     94045.05
    9233.524     14342.25     93896.05
    9236.665     14728.25     93805.05
    9239.825     14921.25     93783.05
    9243.005     14898.25     93713.05
    9246.204     14769.25     93509.05
    9249.422     14715.25     93450.05
    9252.659     14685.25     93300.05
    9255.915     14638.25     93230.05
    9259.191     14197.25     90723.05
    9262.486     14543.25     93476.05
    9265.800     14416.25     93503.05
    9269.134     14260.25     93432.05
    9272.487     14104.25     93213.05
    9275.859     13963.25     92804.05
    9279.250     13838.25     92359.05
    9282.661     13853.25     92761.05
    9286.091     13668.25     91822.05
    9289.540     13689.25     92200.05
    9293.008     13679.25     92338.05
    9296.496     13627.25     92154.05
    9300.003     13591.25     91591.05
    9303.529     13754.25     91602.05
    9307.074     14019.25     91875.05
    9310.639     14217.25     91574.05
    9314.223     14314.25     90572.05
    9317.826     14644.25     91084.05
    9321.449     14766.25     90772.05
    9325.090     14790.25     90457.05
    9328.751     14727.25     89859.05
    9332.432     14891.25     90329.05
    9336.131     14965.25     89741.05
    9339.850     15108.25     89128.05
    9343.588     15432.25     89836.05
    9347.345     15390.25     89241.05
    9351.122     15213.25     88445.05
    9354.918     15287.25     88928.05
    9358.733     15260.25     88751.05
    9362.567     15158.25     88323.05
    9366.421     15161.25     88509.05
    9370.294     15094.25     88266.05
    9374.186     15088.25     88429.05
    9378.097     14997.25     87979.05
    9382.028     14890.25     87472.05
    9385.978     14752.25     86667.05
    9389.947     14818.25     87001.05
    9393.935     14878.25     87268.05
    9397.943     14805.25     86645.05
    9401.970     14922.25     86884.05
    9406.016     15061.25     87020.05
    9410.082     15094.25     86297.05
    9414.166     15100.25     85276.05
    9418.270     15364.25     85800.05
    9422.394     15527.25     85957.05
    9426.536     15586.25     85809.05
    9430.698     15613.25     85697.05
    9434.879     15590.25     85284.05
    9439.079     15512.25     84522.05
    9443.299     15354.25     83205.05
    9447.538     15356.25     82644.05
    9451.796     15638.25     83434.05
    9456.073     15678.25     83036.05
    9460.370     15650.25     82495.05
    9464.686     15504.25     81467.05
    9469.021     15373.25     80381.05
    9473.375     15865.25     82601.05
    9477.749     15892.25     82509.05
    9482.142     15782.25     81797.05
    9486.554     15491.25     80202.05
    9490.986     15895.25     82309.05
    9495.436     15919.25     82436.05
    9499.906     15895.25     82312.05
    9504.396     15905.25     82332.05
    9508.904     15897.25     82202.05
    9513.432     15765.25     81269.05
    9517.979     15664.25     80286.05
    9522.545     15643.25     79576.05
    9527.131     15685.25     79080.05
    9531.736     16163.25     80838.05
    9536.360     16227.25     80648.05
    9541.003     16249.25     80305.05
    9545.666     16307.25     80156.05
    9550.347     16207.25     79288.05
    9555.049     16115.25     78504.05
    9559.769     16215.25     78657.05
    9564.509     16315.25     78801.05
    9569.268     16351.25     78597.05
    9574.046     16354.25     78251.05
    9578.843     16306.25     77650.05
    9583.660     16754.25     79374.05
    9588.496     16798.25     79228.05
    9593.351     16761.25     78752.05
    9598.225     16694.25     78170.05
    9603.119     17010.25     79420.05
    9608.032     17058.25     79434.05
    9612.964     16940.25     78666.05
    9617.916     16988.25     78690.05
    9622.887     16948.25     78301.05
