#XDI/1.1  GSE/1.0
# Column.1: energy eV
# Column.2: itrans
# Column.3: i0
# Scan.end_time: 2009-07-06 11:05:26
# Scan.start_time: 2009-07-06 10:47:26
# Element.symbol:  Eu
# Element.edge:  L3
# Facility.Name:  APS
# Beamline.Name:  13-BM-D
# Beamline.xray_source:  bending magnet
# Mono.dspacing:  3.13555
# Mono.name: Si 111
# Beamline.Storage_Ring_Current: 102.217 || S:SRcurrentAI.VAL
# Beamline.FOE_Mono_angle_readback: 16.8338 || 13BMA:m17.RBV
# Beamline.Mono_Energy_drive_val: 6827.0000 || 13BMA:E:Energy.VAL
# Beamline.Mono_Energy_readback: 6822.0052 || 13BMA:E:E_RBV
# Beamline.Mono_Beam_Offset: 20.0000 || 13BMA:E:height.VAL
# Beamline.I0_sensitivity_value: 5 || 13BMD:A3sens_num.VAL
# Beamline.I0_sensitivity_value: nA/V || 13BMD:A3sens_unit.VAL
# Beamline.I1_sensitivity_value: 1 || 13BMD:A2sens_num.VAL
# Beamline.I1_sensitivity_value: nA/V || 13BMD:A2sens_unit.VAL
# Beamline.FOE_Mono_Yout: 10.7020 || 13BMA:m10.VAL
# Beamline.FOE_Mono_Yin: 10.9132 || 13BMA:m11.VAL
# Beamline.FOE_Mono_Yup: 9.9945 || 13BMA:m12.VAL
# Beamline.FOE_Mono_Cage_Y: -0.505 || 13BMA:m13.VAL
# Beamline.FOE_Mono_Z: 36.417 || 13BMA:m14.VAL
# Beamline.FOE_Mono_angle: 16.8340 || 13BMA:m17.VAL
# Beamline.BMD_Horiz_Width: 3.000 || 13BMD:BMDHt2.C
# Beamline.BMD_Horiz_Center: 3.000 || 13BMD:BMDHt2.D
# Beamline.BMD_Vertical_Width: 1.800 || 13BMD:BMDVt2.C
# Beamline.BMD_Vertical_Center: -14.000 || 13BMD:BMDVt2.D
# Beamline.Sample_X: 19.0008 || 13BMD:m82.VAL
# Beamline.Sample_Y__height: 47.9999 || 13BMD:m81.VAL
# Beamline.Sample_Z__focus: 78.855 || 13BMD:m39.VAL
# Beamline._13GE2_med_dxp1_PKTM: 2.00 us || 
# ScanParameters.Start: Scan.Member: Value
# ScanParameters.E0: 6977.00
# ScanParameters.Legend: Start       Stop       Step       Npts       Time   Kspace?
# ScanParameters.Region1: -150.00    -15.000     5.0000     28.000     1.5000   0
# ScanParameters.Region2: -15.000     25.000    0.25000     161.00     1.5000   0
# ScanParameters.Region3: 2.5616     12.000   0.047429     200.00     1.5000   1
# ScanParameters.End: here
#-------------------------
#  energy  itrans  i0
    6827.000     43795.90     78506.65 
    6832.000     42342.90     75455.65 
    6837.000     43451.90     76960.65 
    6842.000     43224.90     76233.65 
    6847.000     43135.90     75630.65 
    6852.000     43067.90     75204.65 
    6857.000     43197.90     74983.65 
    6862.000     43339.90     74820.65 
    6867.000     43476.90     74686.65 
    6872.000     43652.90     74610.65 
    6877.000     43800.90     74529.65 
    6882.000     43977.90     74464.65 
    6887.000     44187.90     74392.65 
    6892.000     44368.90     74406.65 
    6897.000     44574.90     74326.65 
    6902.000     44816.90     74380.65 
    6907.000     45056.90     74387.65 
    6912.000     45194.90     74331.65 
    6917.000     45472.90     74353.65 
    6922.000     45644.90     74389.65 
    6927.000     45889.90     74360.65 
    6932.000     46023.90     74325.65 
    6937.000     46164.90     74264.65 
    6942.000     46377.90     74376.65 
    6947.000     46445.90     74250.65 
    6952.000     46624.90     74432.65 
    6957.000     46571.90     74354.65 
    6962.000     46251.90     74377.65 
    6962.250     46518.90     74772.65 
    6962.500     46705.90     75148.65 
    6962.750     46802.90     75355.65 
    6963.000     46921.90     75572.65 
    6963.250     46992.90     75683.65 
    6963.500     46967.90     75750.65 
    6963.750     46946.90     75770.65 
    6964.000     46981.90     75862.65 
    6964.250     46935.90     75882.65 
    6964.500     46901.90     75845.65 
    6964.750     47045.90     76148.65 
    6965.000     47009.90     76211.65 
    6965.250     46945.90     76148.65 
    6965.500     46853.90     76165.65 
    6965.750     46810.90     76138.65 
    6966.000     46714.90     76105.65 
    6966.250     46703.90     76178.65 
    6966.500     46564.90     76089.65 
    6966.750     46505.90     76115.65 
    6967.000     46417.90     76117.65 
    6967.250     46262.90     76019.65 
    6967.500     46199.90     76107.65 
    6967.750     46038.90     76063.65 
    6968.000     45901.90     76049.65 
    6968.250     45823.90     76079.65 
    6968.500     45636.90     75999.65 
    6968.750     45551.90     76087.65 
    6969.000     45389.90     75991.65 
    6969.250     45286.90     76091.65 
    6969.500     45126.90     76067.65 
    6969.750     44959.90     76010.65 
    6970.000     44882.90     76149.65 
    6970.250     44725.90     76141.65 
    6970.500     44551.90     76050.65 
    6970.750     44488.90     76171.65 
    6971.000     44400.90     76372.65 
    6971.250     44198.90     76385.65 
    6971.500     43965.90     76332.65 
    6971.750     43657.90     76246.65 
    6972.000     43421.90     76248.65 
    6972.250     43135.90     76253.65 
    6972.500     42724.90     76142.65 
    6972.750     42356.90     76228.65 
    6973.000     41924.90     76147.65 
    6973.250     41495.90     76125.65 
    6973.500     41073.90     76222.65 
    6973.750     40512.90     76051.65 
    6974.000     40066.90     76159.65 
    6974.250     39494.90     76092.65 
    6974.500     38926.90     76176.65 
    6974.750     38315.90     76056.65 
    6975.000     37687.90     76083.65 
    6975.250     36933.90     76005.65 
    6975.500     36068.90     75843.65 
    6975.750     35148.90     75633.65 
    6976.000     34246.90     75544.65 
    6976.250     33399.90     75590.65 
    6976.500     32441.90     75967.65 
    6976.750     31486.90     76445.65 
    6977.000     30297.90     76622.65 
    6977.250     28917.90     76478.65 
    6977.500     27515.90     76431.65 
    6977.750     25994.90     76356.65 
    6978.000     24279.90     76286.65 
    6978.250     22343.90     76229.65 
    6978.500     20581.90     76134.65 
    6978.750     18864.90     76142.65 
    6979.000     17151.90     76097.65 
    6979.250     15485.90     76096.65 
    6979.500     13879.90     76050.65 
    6979.750     12509.90     76070.65 
    6980.000     11375.90     76138.65 
    6980.250     10344.90     76084.65 
    6980.500      9476.90     76036.65 
    6980.750      8724.90     76093.65 
    6981.000      8065.90     76061.65 
    6981.250      7523.90     75985.65 
    6981.500      7113.90     76098.65 
    6981.750      6792.90     76022.65 
    6982.000      6540.90     75973.65 
    6982.250      6399.90     76027.65 
    6982.500      6359.90     75993.65 
    6982.750      6433.90     75956.65 
    6983.000      6597.90     75978.65 
    6983.250      6868.90     76007.65 
    6983.500      7255.90     76223.65 
    6983.750      7753.90     76214.65 
    6984.000      8307.90     76260.65 
    6984.250      8919.90     76199.65 
    6984.500      9549.90     76139.65 
    6984.750     10370.90     76181.65 
    6985.000     11210.90     76083.65 
    6985.250     12092.90     76170.65 
    6985.500     12933.90     76106.65 
    6985.750     13816.90     76161.65 
    6986.000     14725.90     76124.65 
    6986.250     15642.90     76109.65 
    6986.500     16543.90     76169.65 
    6986.750     17413.90     76071.65 
    6987.000     18186.90     76118.65 
    6987.250     19001.90     76042.65 
    6987.500     19761.90     76108.65 
    6987.750     20474.90     76103.65 
    6988.000     21114.90     76022.65 
    6988.250     21686.90     76145.65 
    6988.500     22180.90     76089.65 
    6988.750     22634.90     76041.65 
    6989.000     23080.90     76075.65 
    6989.250     23465.90     76026.65 
    6989.500     23937.90     76284.65 
    6989.750     24225.90     76229.65 
    6990.000     24544.90     76235.65 
    6990.250     24808.90     76241.65 
    6990.500     25056.90     76247.65 
    6990.750     25259.90     76173.65 
    6991.000     25473.90     76254.65 
    6991.250     25623.90     76193.65 
    6991.500     25784.90     76233.65 
    6991.750     25934.90     76147.65 
    6992.000     26070.90     76162.65 
    6992.250     26226.90     76246.65 
    6992.500     26316.90     76206.65 
    6992.750     26421.90     76155.65 
    6993.000     26527.90     76163.65 
    6993.250     26597.90     76170.65 
    6993.500     26653.90     76053.65 
    6993.750     26744.90     76135.65 
    6994.000     26813.90     76092.65 
    6994.250     26874.90     76107.65 
    6994.500     26884.90     76092.65 
    6994.750     26942.90     76057.65 
    6995.000     26975.90     76082.65 
    6995.250     26949.90     76017.65 
    6995.500     27117.90     76363.65 
    6995.750     27114.90     76336.65 
    6996.000     27083.90     76272.65 
    6996.250     27139.90     76389.65 
    6996.500     27116.90     76333.65 
    6996.750     27137.90     76270.65 
    6997.000     27160.90     76367.65 
    6997.250     27126.90     76293.65 
    6997.500     27171.90     76341.65 
    6997.750     27163.90     76384.65 
    6998.000     27165.90     76319.65 
    6998.250     27160.90     76259.65 
    6998.500     27201.90     76365.65 
    6998.750     27226.90     76408.65 
    6999.000     27253.90     76388.65 
    6999.250     27248.90     76317.65 
    6999.500     27246.90     76255.65 
    6999.750     27275.90     76319.65 
    7000.000     27291.90     76275.65 
    7000.250     27280.90     76204.65 
    7000.500     27328.90     76236.65 
    7000.750     27334.90     76242.65 
    7001.000     27318.90     76161.65 
    7001.250     27375.90     76223.65 
    7001.500     27397.90     76176.65 
    7001.750     27406.90     76186.65 
    7002.000     27485.90     76263.65 
    7002.935     27458.90     76082.65 
    7003.886     27453.90     76122.65 
    7004.854     27297.89     76029.64 
    7005.840     27044.87     75899.63 
    7006.843     26688.85     75907.60 
    7007.863     26253.81     75864.56 
    7008.900     25759.76     75917.51 
    7009.955     25245.69     75858.44 
    7011.026     24732.60     75846.35 
    7012.115     24257.49     75815.24 
    7013.221     23818.35     75807.10 
    7014.344     23487.19     75804.94 
    7015.483     23216.00     75862.75 
    7016.641     23083.77     75904.52 
    7017.815     23049.51     75856.27 
    7019.006     23175.21     75867.97 
    7020.215     23400.88     75881.63 
    7021.441     23714.50     75859.26 
    7022.684     24058.08     75880.84 
    7023.944     24439.61     75876.37 
    7025.221     24835.09     75869.84 
    7026.515     25300.52     76024.27 
    7027.827     25632.89     76055.65 
    7029.155     25948.21     76118.97 
    7030.501     26202.47     76085.23 
    7031.864     26395.67     76004.43 
    7033.244     26611.80     76083.56 
    7034.641     26847.87     76332.63 
    7036.056     26926.86     76283.63 
    7037.487     27031.79     76225.56 
    7038.936     27126.64     76316.41 
    7040.401     27200.41     76374.19 
    7041.884     27255.11     76395.89 
    7043.384     27309.72     76510.51 
    7044.901     27303.25     76638.04 
    7046.436     27243.70     76568.48 
    7047.987     27209.05     76616.84 
    7049.556     27144.32     76679.11 
    7051.142     27046.49     76765.28 
    7052.744     26993.56     76813.36 
    7054.364     26891.53     76855.34 
    7056.001     26790.41     76841.22 
    7057.656     26699.18     76910.99 
    7059.327     26661.84     76967.66 
    7061.016     26606.39     77089.22 
    7062.722     26684.84     77387.66 
    7064.444     26703.17     77479.00 
    7066.184     26765.38     77611.22 
    7067.941     26819.48     77645.32 
    7069.716     26937.45     77824.30 
    7071.507     27082.30     77887.16 
    7073.315     27207.03     77986.89 
    7075.142     27334.63     78130.49 
    7076.984     27477.09     78295.97 
    7078.844     27581.42     78344.30 
    7080.721     27671.62     78483.51 
    7082.616     27838.68     78554.58 
    7084.527     27975.60     78756.50 
    7086.456     28079.37     78861.28 
    7088.401     28235.00     79026.92 
    7090.364     28427.48     79241.41 
    7092.344     28656.81     79512.75 
    7094.341     28845.99     79665.94 
    7096.355     29010.01     79819.96 
    7098.387     29181.87     79935.84 
    7100.436     29377.57     80154.55 
    7102.501     29602.11     80379.10 
    7104.584     29834.49     80579.48 
    7106.684     30047.69     80739.70 
    7108.801     30227.73     80945.75 
    7110.935     30331.59     81104.63 
    7113.086     30349.28     81214.33 
    7115.255     30382.79     81390.84 
    7117.441     30015.12     80609.19 
    7119.644     30774.26     82648.35 
    7121.863     30734.23     82735.33 
    7124.101     30699.00     82814.11 
    7126.355     30760.58     83010.71 
    7128.626     30750.97     83116.12 
    7130.915     30788.17     83225.33 
    7133.220     30932.17     83595.34 
    7135.543     31150.97     84040.16 
    7137.883     31399.56     84414.77 
    7140.240     31671.96     84864.17 
    7142.614     31994.14     85266.38 
    7145.006     32290.11     85622.37 
    7147.415     32597.87     85921.15 
    7149.840     32886.42     86265.71 
    7152.283     33146.75     86570.05 
    7154.743     33387.86     86929.19 
    7157.220     33633.75     87333.09 
    7159.714     33851.41     87705.77 
    7162.225     34038.84     88064.23 
    7164.754     34351.05     88820.45 
    7167.299     34561.02     89101.45 
    7169.862     34759.76     89434.21 
    7172.442     35072.26     90046.73 
    7175.039     35332.52     90544.02 
    7177.653     35519.54     90854.06 
    7180.285     35815.32     91347.86 
    7182.933     36137.85     91925.41 
    7185.599     36485.13     92378.72 
    7188.282     36833.16     92903.77 
    7190.981     37121.93     93370.57 
    7193.699     37504.45     93874.11 
    7196.433     37854.70     94413.40 
    7199.184     38165.70     94859.41 
    7201.953     38490.43     95429.18 
    7204.738     38847.89     96090.67 
    7207.541     39137.09     96626.89 
    7210.361     39370.01     97137.84 
    7213.198     39733.66     97837.52 
    7216.052     40023.03     98458.93 
    7218.923     40299.13     99010.05 
    7221.812     40615.94     99512.89 
    7224.717     40943.46    100185.50 
    7227.640     41380.71    101037.70 
    7230.580     41793.66    101784.70 
    7233.537     42187.32    102442.40 
    7236.511     42642.69    103072.80 
    7239.503     43083.76    103789.90 
    7242.511     43517.53    104524.70 
    7245.537     43996.00    105226.20 
    7248.580     44484.17    105953.40 
    7251.639     44931.03    106659.30 
    7254.716     45401.59    107413.90 
    7257.811     45916.82    108108.20 
    7260.922     46352.75    108765.20 
    7264.050     46653.36    109177.80 
    7267.196     47147.66    109942.10 
    7270.358     48345.63    112470.20 
    7273.539     48569.28    112732.90 
    7276.735     48921.60    113188.20 
    7279.950     49388.59    113983.30 
    7283.181     49717.26    114559.00 
    7286.429     50323.59    115468.30 
    7289.695     50904.58    116495.40 
    7292.978     51546.24    117512.10 
    7296.277     52082.55    118312.40 
    7299.595     52670.52    119149.50 
    7302.929     52803.15    119042.10 
    7306.280     54240.43    121792.40 
    7309.648     54764.36    122720.40 
    7313.034     55270.93    123374.00 
    7316.437     55865.14    124317.30 
    7319.856     56487.01    125369.20 
    7323.293     57119.50    126381.80 
    7326.748     57682.64    127169.00 
    7330.219     58345.41    128236.80 
    7333.708     59008.82    129418.20 
    7337.213     59706.85    130555.30 
    7340.735     60385.51    131742.00 
    7344.275     61000.79    132547.40 
    7347.833     61809.70    133996.30 
    7351.406     62461.23    134892.90 
    7354.998     63258.37    136166.10 
    7358.606     63993.13    137061.00 
    7362.231     64826.50    138400.40 
    7365.875     65601.48    139451.40 
    7369.534     66499.07    140774.10 
    7373.211     67328.26    141955.30 
    7376.905     68164.05    143291.20 
    7380.617     69043.45    144413.60 
    7384.345     69900.45    145811.70 
    7388.090     70798.03    147045.30 
    7391.853     71654.21    148330.60 
    7395.633     72600.98    149697.40 
    7399.430     73547.34    151270.80 
    7403.244     74442.28    152349.90 
    7407.075     75427.80    153814.50 
    7410.924     76449.91    155451.60 
    7414.789     77125.59    156138.40 
    7418.672     78771.85    159065.70 
    7422.572     79236.69    159462.60 
    7426.489     80769.09    161875.10 
    7430.423     81616.05    162944.10 
    7434.374     82578.59    164185.70 
    7438.342     83571.69    165609.90 
    7442.328     84662.34    167095.60 
    7446.331     85897.56    168832.90 
    7450.350     87130.34    170492.80 
    7454.387     88184.66    171907.20 
    7458.441     89427.53    173628.10 
    7462.512     90628.96    175112.70 
    7466.601     91733.93    176757.70 
    7470.706     93171.44    178734.30 
    7474.829     94463.49    180435.40 
    7478.969     95819.09    182351.10 
    7483.125     96942.21    183741.30 
    7487.300     98206.87    185394.10 
    7491.491     99431.06    187110.30 
    7495.699    100784.80    188935.10 
    7499.925    102092.00    190583.50 
    7504.167    101986.80    189915.30 
    7508.427    105838.10    196256.70 
    7512.704    106734.90    197014.60 
    7516.998    107837.20    198285.00 
    7521.309    109233.10    199941.00 
    7525.638    111089.40    202362.40 
