#XDI/1.1  GSE/1.0
# Column.1: energy eV
# Column.2: itrans
# Column.3: i0
# Scan.end_time: 2009-07-06 10:47:24
# Scan.start_time: 2009-07-06 10:29:19
# Element.symbol:  Eu
# Element.edge:  L3
# Facility.Name:  APS
# Beamline.Name:  13-BM-D
# Beamline.xray_source:  bending magnet
# Mono.dspacing:  3.13555
# Mono.name: Si 111
# Beamline.Storage_Ring_Current: 102.191 || S:SRcurrentAI.VAL
# Beamline.FOE_Mono_angle_readback: 16.8339 || 13BMA:m17.RBV
# Beamline.Mono_Energy_drive_val: 6827.0000 || 13BMA:E:Energy.VAL
# Beamline.Mono_Energy_readback: 6822.0052 || 13BMA:E:E_RBV
# Beamline.Mono_Beam_Offset: 20.0000 || 13BMA:E:height.VAL
# Beamline.I0_sensitivity_value: 5 || 13BMD:A3sens_num.VAL
# Beamline.I0_sensitivity_value: nA/V || 13BMD:A3sens_unit.VAL
# Beamline.I1_sensitivity_value: 1 || 13BMD:A2sens_num.VAL
# Beamline.I1_sensitivity_value: nA/V || 13BMD:A2sens_unit.VAL
# Beamline.FOE_Mono_Yout: 10.7020 || 13BMA:m10.VAL
# Beamline.FOE_Mono_Yin: 10.9132 || 13BMA:m11.VAL
# Beamline.FOE_Mono_Yup: 9.9945 || 13BMA:m12.VAL
# Beamline.FOE_Mono_Cage_Y: -0.505 || 13BMA:m13.VAL
# Beamline.FOE_Mono_Z: 36.417 || 13BMA:m14.VAL
# Beamline.FOE_Mono_angle: 16.8340 || 13BMA:m17.VAL
# Beamline.BMD_Horiz_Width: 3.000 || 13BMD:BMDHt2.C
# Beamline.BMD_Horiz_Center: 3.000 || 13BMD:BMDHt2.D
# Beamline.BMD_Vertical_Width: 1.800 || 13BMD:BMDVt2.C
# Beamline.BMD_Vertical_Center: -14.000 || 13BMD:BMDVt2.D
# Beamline.Sample_X: 19.0008 || 13BMD:m82.VAL
# Beamline.Sample_Y__height: 47.9999 || 13BMD:m81.VAL
# Beamline.Sample_Z__focus: 78.855 || 13BMD:m39.VAL
# Beamline._13GE2_med_dxp1_PKTM: 2.00 us || 
# ScanParameters.Start: Scan.Member: Value
# ScanParameters.E0: 6977.00
# ScanParameters.Legend: Start       Stop       Step       Npts       Time   Kspace?
# ScanParameters.Region1: -150.00    -15.000     5.0000     28.000     1.5000   0
# ScanParameters.Region2: -15.000     25.000    0.25000     161.00     1.5000   0
# ScanParameters.Region3: 2.5616     12.000   0.047429     200.00     1.5000   1
# ScanParameters.End: here
#-------------------------
#  energy  itrans  i0
    6827.000     43912.90     78795.65 
    6832.000     42336.90     75533.65 
    6837.000     43507.90     77162.65 
    6842.000     43302.90     76381.65 
    6847.000     43231.90     75785.65 
    6852.000     43159.90     75361.65 
    6857.000     43221.90     75094.65 
    6862.000     43338.90     74870.65 
    6867.000     43473.90     74706.65 
    6872.000     43568.90     74505.65 
    6877.000     43788.90     74456.65 
    6882.000     43935.90     74314.65 
    6887.000     44136.90     74310.65 
    6892.000     44401.90     74312.65 
    6897.000     44544.90     74280.65 
    6902.000     44796.90     74254.65 
    6907.000     45017.90     74341.65 
    6912.000     45168.90     74284.65 
    6917.000     45511.90     74414.65 
    6922.000     45746.90     74499.65 
    6927.000     46000.90     74536.65 
    6932.000     46159.90     74502.65 
    6937.000     46273.90     74410.65 
    6942.000     46526.90     74512.65 
    6947.000     46586.90     74510.65 
    6952.000     46739.90     74687.65 
    6957.000     46696.90     74640.65 
    6962.000     46406.90     74662.65 
    6962.250     46684.90     75040.65 
    6962.500     46855.90     75356.65 
    6962.750     46962.90     75591.65 
    6963.000     47002.90     75743.65 
    6963.250     47076.90     75898.65 
    6963.500     47065.90     75964.65 
    6963.750     47052.90     75953.65 
    6964.000     47098.90     76069.65 
    6964.250     46999.90     76006.65 
    6964.500     47005.90     76075.65 
    6964.750     46968.90     76061.65 
    6965.000     46912.90     76055.65 
    6965.250     46837.90     76005.65 
    6965.500     46790.90     75992.65 
    6965.750     46759.90     76051.65 
    6966.000     46663.90     76017.65 
    6966.250     46589.90     76006.65 
    6966.500     46483.90     75935.65 
    6966.750     46446.90     76026.65 
    6967.000     46305.90     75957.65 
    6967.250     46255.90     76040.65 
    6967.500     46093.90     75943.65 
    6967.750     46051.90     76017.65 
    6968.000     45893.90     75958.65 
    6968.250     45773.90     75996.65 
    6968.500     45622.90     75969.65 
    6968.750     45486.90     75972.65 
    6969.000     45350.90     75970.65 
    6969.250     45198.90     75932.65 
    6969.500     45025.90     75952.65 
    6969.750     44808.90     75909.65 
    6970.000     44715.90     75931.65 
    6970.250     44563.90     75880.65 
    6970.500     44441.90     75958.65 
    6970.750     44267.90     75922.65 
    6971.000     44103.90     75965.65 
    6971.250     43858.90     75878.65 
    6971.500     43693.90     75940.65 
    6971.750     43409.90     75883.65 
    6972.000     43215.90     75990.65 
    6972.250     43024.90     76187.65 
    6972.500     42673.90     76100.65 
    6972.750     42272.90     76185.65 
    6973.000     41840.90     76087.65 
    6973.250     41440.90     76136.65 
    6973.500     40944.90     76040.65 
    6973.750     40528.90     76153.65 
    6974.000     39974.90     76042.65 
    6974.250     39465.90     76113.65 
    6974.500     38839.90     76062.65 
    6974.750     38278.90     76089.65 
    6975.000     37595.90     75969.65 
    6975.250     36868.90     75961.65 
    6975.500     36005.90     75780.65 
    6975.750     35084.90     75545.65 
    6976.000     34155.90     75428.65 
    6976.250     33358.90     75576.65 
    6976.500     32396.90     75957.65 
    6976.750     31388.90     76328.65 
    6977.000     30210.90     76556.65 
    6977.250     28826.90     76445.65 
    6977.500     27446.90     76405.65 
    6977.750     25882.90     76318.65 
    6978.000     24174.90     76251.65 
    6978.250     22356.90     76465.65 
    6978.500     20597.90     76368.65 
    6978.750     18825.90     76289.65 
    6979.000     17122.90     76250.65 
    6979.250     15494.90     76341.65 
    6979.500     13887.90     76237.65 
    6979.750     12487.90     76209.65 
    6980.000     11357.90     76240.65 
    6980.250     10326.90     76192.65 
    6980.500      9463.90     76209.65 
    6980.750      8714.90     76182.65 
    6981.000      8054.90     76193.65 
    6981.250      7536.90     76252.65 
    6981.500      7118.90     76231.65 
    6981.750      6783.90     76182.65 
    6982.000      6546.90     76226.65 
    6982.250      6396.90     76138.65 
    6982.500      6364.90     76170.65 
    6982.750      6433.90     76115.65 
    6983.000      6601.90     76179.65 
    6983.250      6874.90     76140.65 
    6983.500      7251.90     76106.65 
    6983.750      7719.90     76085.65 
    6984.000      8274.90     76089.65 
    6984.250      8895.90     76067.65 
    6984.500      9524.90     76019.65 
    6984.750     10360.90     76054.65 
    6985.000     11195.90     76013.65 
    6985.250     12051.90     76022.65 
    6985.500     12919.90     76007.65 
    6985.750     13795.90     75979.65 
    6986.000     14702.90     76074.65 
    6986.250     15604.90     75995.65 
    6986.500     16522.90     76032.65 
    6986.750     17376.90     75930.65 
    6987.000     18180.90     76019.65 
    6987.250     19007.90     75927.65 
    6987.500     19723.90     76017.65 
    6987.750     20425.90     75913.65 
    6988.000     21118.90     76080.65 
    6988.250     21634.90     75949.65 
    6988.500     22134.90     76010.65 
    6988.750     22585.90     75956.65 
    6989.000     23006.90     75928.65 
    6989.250     23476.90     76028.65 
    6989.500     23815.90     75966.65 
    6989.750     24114.90     75935.65 
    6990.000     24441.90     75974.65 
    6990.250     24727.90     76034.65 
    6990.500     24973.90     76106.65 
    6990.750     25212.90     76088.65 
    6991.000     25404.90     76123.65 
    6991.250     25589.90     76099.65 
    6991.500     25729.90     76063.65 
    6991.750     25860.90     76090.65 
    6992.000     25992.90     76003.65 
    6992.250     26114.90     76047.65 
    6992.500     26221.90     75997.65 
    6992.750     26337.90     76034.65 
    6993.000     26412.90     76005.65 
    6993.250     26529.90     76060.65 
    6993.500     26589.90     75967.65 
    6993.750     26676.90     76031.65 
    6994.000     26721.90     75984.65 
    6994.250     26809.90     76006.65 
    6994.500     26825.90     75957.65 
    6994.750     26893.90     75959.65 
    6995.000     26891.90     75966.65 
    6995.250     26928.90     75976.65 
    6995.500     26952.90     75972.65 
    6995.750     26968.90     75938.65 
    6996.000     26998.90     76010.65 
    6996.250     27094.90     76266.65 
    6996.500     27077.90     76254.65 
    6996.750     27077.90     76245.65 
    6997.000     27080.90     76189.65 
    6997.250     27089.90     76215.65 
    6997.500     27070.90     76149.65 
    6997.750     27076.90     76143.65 
    6998.000     27065.90     76154.65 
    6998.250     27077.90     76129.65 
    6998.500     27124.90     76238.65 
    6998.750     27143.90     76234.65 
    6999.000     27122.90     76157.65 
    6999.250     27123.90     76157.65 
    6999.500     27207.90     76219.65 
    6999.750     27165.90     76139.65 
    7000.000     27193.90     76137.65 
    7000.250     27223.90     76130.65 
    7000.500     27235.90     76058.65 
    7000.750     27242.90     76155.65 
    7001.000     27267.90     76060.65 
    7001.250     27286.90     76076.65 
    7001.500     27318.90     76083.65 
    7001.750     27341.90     76025.65 
    7002.000     27347.90     76047.65 
    7002.935     27438.90     76168.65 
    7003.886     27425.90     76119.65 
    7004.854     27302.89     76162.64 
    7005.840     27078.87     76063.63 
    7006.843     26710.85     76013.60 
    7007.863     26259.81     76017.56 
    7008.900     25779.76     76027.51 
    7009.955     25295.69     76017.44 
    7011.026     24743.60     75985.35 
    7012.115     24277.49     75951.24 
    7013.221     23838.35     75929.10 
    7014.344     23501.19     75944.94 
    7015.483     23265.00     76036.75 
    7016.641     23129.77     76018.52 
    7017.815     23111.51     76000.27 
    7019.006     23208.21     75949.97 
    7020.215     23423.88     75964.63 
    7021.441     23728.50     75923.26 
    7022.684     24066.08     75959.84 
    7023.944     24465.61     75940.37 
    7025.221     24871.09     75972.84 
    7026.515     25230.52     75947.27 
    7027.827     25591.89     76007.65 
    7029.155     25903.21     76027.97 
    7030.501     26175.47     76045.23 
    7031.864     26357.67     75882.43 
    7033.244     26550.80     75989.56 
    7034.641     26762.87     76107.63 
    7036.056     26871.86     76126.63 
    7037.487     26940.79     76101.56 
    7038.936     27082.64     76282.41 
    7040.401     27113.41     76247.19 
    7041.884     27194.11     76340.89 
    7043.384     27216.72     76379.51 
    7044.901     27178.25     76380.04 
    7046.436     27158.70     76397.48 
    7047.987     27116.05     76514.84 
    7049.556     27052.32     76551.11 
    7051.142     26984.49     76611.28 
    7052.744     26900.56     76672.36 
    7054.364     26800.53     76698.34 
    7056.001     26723.41     76737.22 
    7057.656     26660.18     76847.99 
    7059.327     26579.84     76854.66 
    7061.016     26524.39     76962.22 
    7062.722     26582.84     77062.66 
    7064.444     26575.17     77142.00 
    7066.184     26633.38     77266.22 
    7067.941     26785.48     77484.32 
    7069.716     26875.45     77561.30 
    7071.507     26994.30     77712.16 
    7073.315     27111.03     77782.89 
    7075.142     27257.63     77955.49 
    7076.984     27386.09     78056.97 
    7078.844     27507.42     78191.30 
    7080.721     27640.62     78307.51 
    7082.616     27763.68     78453.58 
    7084.527     27919.60     78562.50 
    7086.456     28058.37     78803.28 
    7088.401     28196.00     78910.92 
    7090.364     28386.48     79152.41 
    7092.344     28586.81     79424.75 
    7094.341     28789.99     79609.94 
    7096.355     28939.01     79667.96 
    7098.387     29131.87     79839.84 
    7100.436     29337.57     80092.55 
    7102.501     29563.11     80299.10 
    7104.584     29752.49     80366.48 
    7106.684     29981.69     80637.70 
    7108.801     30151.73     80840.75 
    7110.935     30248.59     80976.63 
    7113.086     30286.28     81004.33 
    7115.255     30409.79     81512.84 
    7117.441     30030.12     80617.19 
    7119.644     30762.26     82727.35 
    7121.863     30715.23     82746.33 
    7124.101     30723.00     82924.11 
    7126.355     30723.58     83025.71 
    7128.626     30764.97     83165.12 
    7130.915     30847.17     83373.33 
    7133.220     30986.17     83756.34 
    7135.543     31165.97     84152.16 
    7137.883     31421.56     84497.77 
    7140.240     31705.96     84938.17 
    7142.614     31994.14     85327.38 
    7145.006     32324.11     85748.37 
    7147.415     32637.87     86007.15 
    7149.840     32904.42     86338.71 
    7152.283     33138.75     86688.05 
    7154.743     33375.86     87034.19 
    7157.220     33623.75     87454.09 
    7159.714     33842.41     87758.77 
    7162.225     34051.84     88204.23 
    7164.754     34254.05     88641.45 
    7167.299     34430.02     88973.45 
    7169.862     34688.76     89456.21 
    7172.442     35113.26     90346.73 
    7175.039     35387.52     90712.02 
    7177.653     35601.54     91195.06 
    7180.285     35885.32     91538.86 
    7182.933     36230.85     92222.41 
    7185.599     36548.13     92647.72 
    7188.282     36894.16     93237.77 
    7190.981     37234.93     93634.57 
    7193.699     37552.45     94117.11 
    7196.433     37893.70     94561.40 
    7199.184     38203.70     95044.41 
    7201.953     38532.43     95648.18 
    7204.738     38856.89     96154.67 
    7207.541     39147.09     96747.89 
    7210.361     39458.01     97374.84 
    7213.198     39767.66     97995.52 
    7216.052     40040.03     98567.93 
    7218.923     40343.13     99134.05 
    7221.812     40662.94     99731.89 
    7224.717     40996.46    100338.50 
    7227.640     41381.71    101180.70 
    7230.580     41743.66    101652.70 
    7233.537     42153.32    102317.40 
    7236.511     42601.69    103054.80 
    7239.503     43039.76    103710.90 
    7242.511     43561.53    104519.70 
    7245.537     43948.00    105137.20 
    7248.580     44464.17    105873.40 
    7251.639     44912.03    106625.30 
    7254.716     45364.59    107254.90 
    7257.811     45783.82    107930.20 
    7260.922     46234.75    108634.20 
    7264.050     46565.36    109040.80 
    7267.196     47092.66    109970.10 
    7270.358     48261.63    112391.20 
    7273.539     48449.28    112723.90 
    7276.735     48787.60    113091.20 
    7279.950     49204.59    113775.30 
    7283.181     49646.26    114428.00 
    7286.429     50215.59    115371.30 
    7289.695     50756.58    116284.40 
    7292.978     51371.24    117184.10 
    7296.277     52134.55    118429.40 
    7299.595     52748.52    119405.50 
    7302.929     52889.15    119232.10 
    7306.280     54197.43    121894.40 
    7309.648     54666.36    122490.40 
    7313.034     55247.93    123393.00 
    7316.437     55783.14    124265.30 
    7319.856     56414.01    125251.20 
    7323.293     57030.50    126287.80 
    7326.748     57678.64    127362.00 
    7330.219     58325.41    128440.80 
    7333.708     59001.82    129433.20 
    7337.213     59726.85    130717.30 
    7340.735     60371.51    131660.00 
    7344.275     60973.79    132617.40 
    7347.833     61761.70    133765.30 
    7351.406     62516.23    134993.90 
    7354.998     63217.37    136189.10 
    7358.606     64168.13    137573.00 
    7362.231     64991.50    138775.40 
    7365.875     65854.48    140085.40 
    7369.534     66696.07    141308.10 
    7373.211     67523.26    142403.30 
    7376.905     68430.05    143658.20 
    7380.617     69300.45    144935.60 
    7384.345     70136.45    146103.70 
    7388.090     70981.03    147324.30 
    7391.853     71910.21    148769.60 
    7395.633     72787.98    149953.40 
    7399.430     73705.34    151395.80 
    7403.244     74649.28    152872.90 
    7407.075     75616.80    154161.50 
    7410.924     76417.91    155397.60 
    7414.789     77091.59    156119.40 
    7418.672     78750.85    158997.70 
    7422.572     79277.69    159596.60 
    7426.489     80716.09    161794.10 
    7430.423     81560.05    162929.10 
    7434.374     82532.59    164193.70 
    7438.342     83600.69    165606.90 
    7442.328     84722.34    167097.60 
    7446.331     85824.56    168612.90 
    7450.350     86904.34    170125.80 
    7454.387     88025.66    171644.20 
    7458.441     89239.53    173405.10 
    7462.512     90460.96    174916.70 
    7466.601     91635.93    176569.70 
    7470.706     92941.44    178195.30 
    7474.829     94316.49    180173.40 
    7478.969     95757.09    182407.10 
    7483.125     96822.21    183813.30 
    7487.300     98013.87    185357.10 
    7491.491     99361.06    187220.30 
    7495.699    100697.80    188999.10 
    7499.925    101886.00    190507.50 
    7504.167    101886.80    189970.30 
    7508.427    105569.10    195939.70 
    7512.704    106592.90    196813.60 
    7516.998    107644.20    198083.00 
    7521.309    109034.10    199719.00 
    7525.638    110575.40    201657.40 
