#XDI/1.1  GSE/1.0
# Column.1: energy eV
# Column.2: itrans
# Column.3: i0
# Scan.end_time: 2009-07-06 13:09:22
# Scan.start_time: 2009-07-06 12:51:21
# Element.symbol:  Eu
# Element.edge:  L3
# Facility.Name:  APS
# Beamline.Name:  13-BM-D
# Beamline.xray_source:  bending magnet
# Mono.dspacing:  3.13555
# Mono.name: Si 111
# Beamline.Storage_Ring_Current: 102.056 || S:SRcurrentAI.VAL
# Beamline.FOE_Mono_angle_readback: 16.8339 || 13BMA:m17.RBV
# Beamline.Mono_Energy_drive_val: 6827.0000 || 13BMA:E:Energy.VAL
# Beamline.Mono_Energy_readback: 6822.0052 || 13BMA:E:E_RBV
# Beamline.Mono_Beam_Offset: 20.0000 || 13BMA:E:height.VAL
# Beamline.I0_sensitivity_value: 5 || 13BMD:A3sens_num.VAL
# Beamline.I0_sensitivity_value: nA/V || 13BMD:A3sens_unit.VAL
# Beamline.I1_sensitivity_value: 1 || 13BMD:A2sens_num.VAL
# Beamline.I1_sensitivity_value: nA/V || 13BMD:A2sens_unit.VAL
# Beamline.FOE_Mono_Yout: 10.7020 || 13BMA:m10.VAL
# Beamline.FOE_Mono_Yin: 10.9132 || 13BMA:m11.VAL
# Beamline.FOE_Mono_Yup: 9.9945 || 13BMA:m12.VAL
# Beamline.FOE_Mono_Cage_Y: -0.505 || 13BMA:m13.VAL
# Beamline.FOE_Mono_Z: 36.417 || 13BMA:m14.VAL
# Beamline.FOE_Mono_angle: 16.8340 || 13BMA:m17.VAL
# Beamline.BMD_Horiz_Width: 3.000 || 13BMD:BMDHt2.C
# Beamline.BMD_Horiz_Center: 3.000 || 13BMD:BMDHt2.D
# Beamline.BMD_Vertical_Width: 1.800 || 13BMD:BMDVt2.C
# Beamline.BMD_Vertical_Center: -14.000 || 13BMD:BMDVt2.D
# Beamline.Sample_X: 65.6006 || 13BMD:m82.VAL
# Beamline.Sample_Y__height: 111.5998 || 13BMD:m81.VAL
# Beamline.Sample_Z__focus: 79.455 || 13BMD:m39.VAL
# Beamline._13GE2_med_dxp1_PKTM: 2.00 us || 
# ScanParameters.Start: Scan.Member: Value
# ScanParameters.E0: 6977.00
# ScanParameters.Legend: Start       Stop       Step       Npts       Time   Kspace?
# ScanParameters.Region1: -150.00    -15.000     5.0000     28.000     1.5000   0
# ScanParameters.Region2: -15.000     25.000    0.25000     161.00     1.5000   0
# ScanParameters.Region3: 2.5616     12.000   0.047429     200.00     1.5000   1
# ScanParameters.End: here
#-------------------------
#  energy  itrans  i0
    6827.000     27126.90     78576.65 
    6832.000     26331.90     75727.65 
    6837.000     26875.90     76908.65 
    6842.000     26813.90     76146.65 
    6847.000     26791.90     75553.65 
    6852.000     26793.90     75171.65 
    6857.000     26888.90     74962.65 
    6862.000     26961.90     74769.65 
    6867.000     27080.90     74598.65 
    6872.000     27193.90     74529.65 
    6877.000     27369.90     74474.65 
    6882.000     27505.90     74423.65 
    6887.000     27663.90     74392.65 
    6892.000     27804.90     74348.65 
    6897.000     27910.90     74226.65 
    6902.000     28101.90     74314.65 
    6907.000     28266.90     74239.65 
    6912.000     28440.90     74334.65 
    6917.000     28741.90     74590.65 
    6922.000     28869.90     74623.65 
    6927.000     29042.90     74563.65 
    6932.000     29134.90     74541.65 
    6937.000     29249.90     74456.65 
    6942.000     29436.90     74595.65 
    6947.000     29545.90     74468.65 
    6952.000     29686.90     74675.65 
    6957.000     29678.90     74631.65 
    6962.000     29506.90     74607.65 
    6962.250     29670.90     75041.65 
    6962.500     29796.90     75403.65 
    6962.750     29882.90     75612.65 
    6963.000     29885.90     75761.65 
    6963.250     29954.90     75925.65 
    6963.500     29963.90     76032.65 
    6963.750     29959.90     76074.65 
    6964.000     29904.90     76083.65 
    6964.250     29939.90     76141.65 
    6964.500     29923.90     76182.65 
    6964.750     29901.90     76167.65 
    6965.000     29842.90     76140.65 
    6965.250     29780.90     76131.65 
    6965.500     29766.90     76154.65 
    6965.750     29814.90     76423.65 
    6966.000     29793.90     76325.65 
    6966.250     29745.90     76299.65 
    6966.500     29690.90     76276.65 
    6966.750     29629.90     76280.65 
    6967.000     29581.90     76338.65 
    6967.250     29543.90     76346.65 
    6967.500     29488.90     76358.65 
    6967.750     29385.90     76326.65 
    6968.000     29334.90     76319.65 
    6968.250     29221.90     76345.65 
    6968.500     29158.90     76314.65 
    6968.750     29037.90     76300.65 
    6969.000     28976.90     76306.65 
    6969.250     28896.90     76361.65 
    6969.500     28811.90     76384.65 
    6969.750     28674.90     76326.65 
    6970.000     28568.90     76342.65 
    6970.250     28486.90     76329.65 
    6970.500     28384.90     76341.65 
    6970.750     28295.90     76358.65 
    6971.000     28175.90     76321.65 
    6971.250     28039.90     76292.65 
    6971.500     27933.90     76398.65 
    6971.750     27839.90     76565.65 
    6972.000     27678.90     76560.65 
    6972.250     27534.90     76745.65 
    6972.500     27361.90     76825.65 
    6972.750     26980.90     76556.65 
    6973.000     26627.90     76324.65 
    6973.250     26332.90     76280.65 
    6973.500     26084.90     76349.65 
    6973.750     25753.90     76380.65 
    6974.000     25401.90     76335.65 
    6974.250     25018.90     76299.65 
    6974.500     24624.90     76374.65 
    6974.750     24240.90     76381.65 
    6975.000     23762.90     76323.65 
    6975.250     23260.90     76250.65 
    6975.500     22735.90     76187.65 
    6975.750     22096.90     75936.65 
    6976.000     21478.90     75812.65 
    6976.250     20909.90     75789.65 
    6976.500     20244.90     76162.65 
    6976.750     19590.90     76586.65 
    6977.000     18802.90     76758.65 
    6977.250     17927.90     76766.65 
    6977.500     16986.90     76762.65 
    6977.750     15988.90     76615.65 
    6978.000     14871.90     76575.65 
    6978.250     13650.90     76485.65 
    6978.500     12528.90     76415.65 
    6978.750     11451.90     76390.65 
    6979.000     10411.90     76380.65 
    6979.250      9415.90     76362.65 
    6979.500      8465.90     76373.65 
    6979.750      7660.90     76298.65 
    6980.000      7029.90     76363.65 
    6980.250      6452.90     76309.65 
    6980.500      6008.90     76276.65 
    6980.750      5623.90     76351.65 
    6981.000      5275.90     76307.65 
    6981.250      4997.90     76293.65 
    6981.500      4782.90     76303.65 
    6981.750      4590.90     76231.65 
    6982.000      4434.90     76246.65 
    6982.250      4319.90     76189.65 
    6982.500      4244.90     76142.65 
    6982.750      4222.90     76118.65 
    6983.000      4252.90     76132.65 
    6983.250      4327.90     76129.65 
    6983.500      4469.90     76285.65 
    6983.750      4683.90     76457.65 
    6984.000      4925.90     76452.65 
    6984.250      5205.90     76446.65 
    6984.500      5530.90     76408.65 
    6984.750      5967.90     76427.65 
    6985.000      6413.90     76397.65 
    6985.250      6904.90     76333.65 
    6985.500      7417.90     76256.65 
    6985.750      7944.90     76354.65 
    6986.000      8497.90     76294.65 
    6986.250      9080.90     76250.65 
    6986.500      9654.90     76277.65 
    6986.750     10247.90     76331.65 
    6987.000     10760.90     76274.65 
    6987.250     11317.90     76259.65 
    6987.500     11833.90     76298.65 
    6987.750     12344.90     76335.65 
    6988.000     12784.90     76363.65 
    6988.250     13190.90     76378.65 
    6988.500     13517.90     76337.65 
    6988.750     13864.90     76314.65 
    6989.000     14172.90     76305.65 
    6989.250     14471.90     76305.65 
    6989.500     14739.90     76329.65 
    6989.750     14948.90     76264.65 
    6990.000     15176.90     76271.65 
    6990.250     15391.90     76245.65 
    6990.500     15554.90     76244.65 
    6990.750     15704.90     76181.65 
    6991.000     15870.90     76193.65 
    6991.250     15990.90     76209.65 
    6991.500     16107.90     76216.65 
    6991.750     16247.90     76217.65 
    6992.000     16347.90     76193.65 
    6992.250     16427.90     76147.65 
    6992.500     16507.90     76120.65 
    6992.750     16595.90     76132.65 
    6993.000     16671.90     76166.65 
    6993.250     16757.90     76152.65 
    6993.500     16810.90     76092.65 
    6993.750     16871.90     76098.65 
    6994.000     16911.90     76081.65 
    6994.250     16953.90     76098.65 
    6994.500     17004.90     76136.65 
    6994.750     17002.90     76003.65 
    6995.000     17030.90     75985.65 
    6995.250     17047.90     76082.65 
    6995.500     17064.90     76146.65 
    6995.750     17092.90     76268.65 
    6996.000     17065.90     76223.65 
    6996.250     17066.90     76204.65 
    6996.500     17056.90     76226.65 
    6996.750     17031.90     76222.65 
    6997.000     17020.90     76275.65 
    6997.250     17006.90     76296.65 
    6997.500     16984.90     76283.65 
    6997.750     16977.90     76250.65 
    6998.000     16958.90     76272.65 
    6998.250     16934.90     76237.65 
    6998.500     16912.90     76258.65 
    6998.750     16886.90     76223.65 
    6999.000     16881.90     76231.65 
    6999.250     16865.90     76179.65 
    6999.500     16875.90     76219.65 
    6999.750     16870.90     76166.65 
    7000.000     16869.90     76083.65 
    7000.250     16859.90     76042.65 
    7000.500     16890.90     76088.65 
    7000.750     16916.90     76122.65 
    7001.000     16915.90     76088.65 
    7001.250     16957.90     76079.65 
    7001.500     17006.90     76066.65 
    7001.750     17102.90     76408.65 
    7002.000     17131.90     76404.65 
    7002.935     17248.90     76319.65 
    7003.886     17344.90     76232.65 
    7004.854     17404.89     76234.64 
    7005.840     17368.87     76198.63 
    7006.843     17215.85     76128.60 
    7007.863     16975.81     76118.56 
    7008.900     16700.76     76121.51 
    7009.955     16376.69     76052.44 
    7011.026     16041.60     76032.35 
    7012.115     15683.49     76064.24 
    7013.221     15308.35     75988.10 
    7014.344     14982.19     76008.94 
    7015.483     14721.00     76068.75 
    7016.641     14517.77     76047.52 
    7017.815     14438.51     76042.27 
    7019.006     14487.21     75968.97 
    7020.215     14648.88     76066.63 
    7021.441     14858.50     76005.26 
    7022.684     15091.08     76014.84 
    7023.944     15367.61     76081.37 
    7025.221     15633.09     76126.84 
    7026.515     15887.52     76188.27 
    7027.827     16141.89     76427.65 
    7029.155     16340.21     76433.97 
    7030.501     16504.47     76451.23 
    7031.864     16590.67     76277.43 
    7033.244     16729.80     76333.56 
    7034.641     16905.87     76556.63 
    7036.056     17003.86     76598.63 
    7037.487     17088.79     76536.56 
    7038.936     17211.64     76657.41 
    7040.401     17280.41     76676.19 
    7041.884     17381.11     76728.89 
    7043.384     17447.72     76703.51 
    7044.901     17498.25     76859.04 
    7046.436     17489.70     76825.48 
    7047.987     17472.05     76812.84 
    7049.556     17450.32     76876.11 
    7051.142     17415.49     77068.28 
    7052.744     17335.56     77026.36 
    7054.364     17230.53     77056.34 
    7056.001     17177.41     77056.22 
    7057.656     17065.18     77109.99 
    7059.327     16991.84     77119.66 
    7061.016     16967.39     77277.22 
    7062.722     16997.84     77405.66 
    7064.444     17027.17     77559.00 
    7066.184     17074.38     77595.22 
    7067.941     17134.48     77678.32 
    7069.716     17208.45     77765.30 
    7071.507     17266.30     77864.16 
    7073.315     17356.03     77915.89 
    7075.142     17441.63     78122.49 
    7076.984     17516.09     78237.97 
    7078.844     17612.42     78354.30 
    7080.721     17681.62     78515.51 
    7082.616     17753.68     78580.58 
    7084.527     17833.60     78750.50 
    7086.456     17886.37     78945.28 
    7088.401     17930.00     79011.92 
    7090.364     18024.48     79308.41 
    7092.344     18154.81     79534.75 
    7094.341     18276.99     79707.94 
    7096.355     18422.01     79856.96 
    7098.387     18602.87     79991.84 
    7100.436     18819.57     80227.55 
    7102.501     19027.11     80348.10 
    7104.584     19254.49     80550.48 
    7106.684     19407.69     80727.70 
    7108.801     19546.73     80973.75 
    7110.935     19642.59     81247.63 
    7113.086     19641.28     81334.33 
    7115.255     19666.79     81543.84 
    7117.441     19425.12     80849.19 
    7119.644     19886.26     82718.35 
    7121.863     19911.23     82836.33 
    7124.101     19930.00     82974.11 
    7126.355     19961.58     83257.71 
    7128.626     19935.97     83276.12 
    7130.915     19937.17     83538.33 
    7133.220     19976.17     83884.34 
    7135.543     20049.97     84277.16 
    7137.883     20186.56     84560.77 
    7140.240     20351.96     85076.17 
    7142.614     20561.14     85484.38 
    7145.006     20812.11     85821.37 
    7147.415     21063.87     86085.15 
    7149.840     21284.42     86477.71 
    7152.283     21494.75     86739.05 
    7154.743     21670.86     87156.19 
    7157.220     21834.74     87457.09 
    7159.714     21966.41     87877.77 
    7162.225     22112.84     88280.23 
    7164.754     22259.05     88739.45 
    7167.299     22414.02     89199.45 
    7169.862     22540.76     89525.21 
    7172.442     22696.26     90002.73 
    7175.039     22857.52     90573.02 
    7177.653     23017.54     90918.06 
    7180.285     23180.32     91341.86 
    7182.933     23455.85     92007.41 
    7185.599     23715.13     92525.72 
    7188.282     23965.15     93036.77 
    7190.981     24273.93     93493.57 
    7193.699     24521.44     94011.11 
    7196.433     24784.70     94607.40 
    7199.184     24999.70     94983.41 
    7201.953     25216.43     95591.18 
    7204.738     25446.89     96232.67 
    7207.541     25642.09     96814.89 
    7210.361     25839.01     97417.84 
    7213.198     26051.66     97990.52 
    7216.052     26287.03     98662.93 
    7218.923     26464.13     99231.05 
    7221.812     26642.94     99714.89 
    7224.717     26853.46    100350.50 
    7227.640     27094.71    101090.70 
    7230.580     27381.66    101886.70 
    7233.537     27651.32    102491.40 
    7236.511     27899.69    103146.80 
    7239.503     28215.76    103884.90 
    7242.511     28570.53    104602.70 
    7245.537     28828.00    105218.20 
    7248.580     29149.17    105890.40 
    7251.639     29498.03    106679.30 
    7254.716     29867.58    107271.90 
    7257.811     30218.83    108056.20 
    7260.922     30514.75    108698.20 
    7264.050     30769.37    109153.80 
    7267.196     30958.66    109518.10 
    7270.358     31917.63    112636.20 
    7273.539     32054.28    112926.90 
    7276.735     32285.60    113353.20 
    7279.950     32588.59    114024.30 
    7283.181     32857.26    114703.00 
    7286.429     33222.59    115533.30 
    7289.695     33678.58    116539.40 
    7292.978     34157.24    117610.10 
    7296.277     34571.55    118442.40 
    7299.595     34997.52    119303.50 
    7302.929     35163.15    119348.10 
    7306.280     36003.43    121635.40 
    7309.648     36328.36    122371.40 
    7313.034     36751.93    123218.00 
    7316.437     37154.14    124082.30 
    7319.856     37605.01    125175.20 
    7323.293     38048.50    126320.80 
    7326.748     38468.64    127074.00 
    7330.219     38965.41    128225.80 
    7333.708     39408.82    129398.20 
    7337.213     39862.85    130581.30 
    7340.735     40314.51    131643.00 
    7344.275     40747.79    132580.40 
    7347.833     41275.70    133752.30 
    7351.406     41835.23    134955.90 
    7354.998     42445.37    136320.10 
    7358.606     42983.13    137533.00 
    7362.231     43560.50    138612.40 
    7365.875     44139.48    139832.40 
    7369.534     44751.07    141104.10 
    7373.211     45359.26    142481.30 
    7376.905     45927.05    143511.20 
    7380.617     46528.45    144796.60 
    7384.345     47160.44    145912.70 
    7388.090     47800.03    147336.30 
    7391.853     48474.21    148857.60 
    7395.633     49128.98    150014.40 
    7399.430     49825.34    151383.80 
    7403.244     50468.28    152689.90 
    7407.075     51096.80    154182.50 
    7410.924     51699.91    155214.60 
    7414.789     52044.59    155687.40 
    7418.672     53413.85    159321.70 
    7422.572     53678.68    159588.60 
    7426.489     54745.09    162148.10 
    7430.423     55417.05    163272.10 
    7434.374     56102.59    164451.70 
    7438.342     56782.69    165794.90 
    7442.328     57611.35    167338.60 
    7446.331     58418.56    168922.90 
    7450.350     59306.34    170514.80 
    7454.387     60049.66    172006.20 
    7458.441     60976.54    173766.10 
    7462.512     61746.96    175352.70 
    7466.601     62615.93    176797.70 
    7470.706     63476.44    178445.30 
    7474.829     64453.49    180333.40 
    7478.969     65405.08    181996.10 
    7483.125     66338.21    183561.30 
    7487.300     67162.87    185063.10 
    7491.491     68094.06    186981.30 
    7495.699     68956.78    188524.10 
    7499.925     69764.02    190372.50 
    7504.167     69614.80    188998.30 
    7508.427     72284.09    195672.70 
    7512.704     72885.89    196501.60 
    7516.998     73734.21    197849.00 
    7521.309     74819.05    199536.00 
    7525.638     75944.40    201395.40 
