#XDI/1.1  GSE/1.0
# Column.1: energy eV
# Column.2: itrans
# Column.3: i0
# Scan.end_time: 2009-07-06 14:26:20
# Scan.start_time: 2009-07-06 14:08:16
# Element.symbol:  Eu
# Element.edge:  L3
# Mono.d_spacing:  3.13555
# Mono.name: Si 111
# Sample.temperature: room temperature
# Sample.formula: EuO
# Sample.name: EuO
# Sample.prep: powder on tape, many layers, from D. Haskel
# Facility.Name:  APS
# Beamline.Name:  13-BM-D
# Beamline.xray_source:  bending magnet
# Beamline.Storage_Ring_Current: 102.191
# Beamline.I0: 5 nA/V
# Beamline.I1: 1 nA/V
# ScanParameters.E0: 6977.00
# ScanParameters.Legend: Start       Stop       Step       Npts       Time   Kspace?
# ScanParameters.Region1: -150.00    -15.000     5.0000     28.000     1.5000   0
# ScanParameters.Region2: -15.000     25.000    0.25000     161.00     1.5000   0
# ScanParameters.Region3: 2.5616     12.000   0.047429     200.00     1.5000   1
#-------------------------
#  energy  itrans  i0
    6827.000      9967.90     78958.65
    6832.000      9687.90     76083.65
    6837.000      9860.90     76951.65
    6842.000      9871.90     76316.65
    6847.000      9886.90     75781.65
    6852.000      9895.90     75257.65
    6857.000      9954.90     75174.65
    6862.000     10015.90     75009.65
    6867.000     10077.90     74887.65
    6872.000     10138.90     74772.65
    6877.000     10209.90     74718.65
    6882.000     10285.90     74594.65
    6887.000     10366.90     74646.65
    6892.000     10434.90     74648.65
    6897.000     10509.90     74565.65
    6902.000     10590.90     74597.65
    6907.000     10661.90     74638.65
    6912.000     10735.90     74545.65
    6917.000     10831.90     74670.65
    6922.000     10877.90     74626.65
    6927.000     10962.90     74680.65
    6932.000     11008.90     74564.65
    6937.000     11037.90     74530.65
    6942.000     11081.90     74577.65
    6947.000     11062.90     74558.65
    6952.000     11020.90     74747.65
    6957.000     10802.90     74655.65
    6962.000     10195.90     74641.65
    6962.250     10218.90     75112.65
    6962.500     10209.90     75458.65
    6962.750     10195.90     75705.65
    6963.000     10150.90     75857.65
    6963.250     10092.90     75935.65
    6963.500     10045.90     76069.65
    6963.750      9976.90     76013.65
    6964.000      9916.90     76134.65
    6964.250      9832.90     76135.65
    6964.500      9723.90     76101.65
    6964.750      9636.90     76098.65
    6965.000      9546.90     76141.65
    6965.250      9438.90     76155.65
    6965.500      9320.90     76178.65
    6965.750      9190.90     76226.65
    6966.000      9058.90     76260.65
    6966.250      8904.90     76254.65
    6966.500      8762.90     76321.65
    6966.750      8571.90     76325.65
    6967.000      8387.90     76357.65
    6967.250      8168.90     76328.65
    6967.500      7955.90     76388.65
    6967.750      7716.90     76327.65
    6968.000      7460.90     76328.65
    6968.250      7180.90     76350.65
    6968.500      6872.90     76352.65
    6968.750      6548.90     76334.65
    6969.000      6188.90     76344.65
    6969.250      5829.90     76315.65
    6969.500      5422.90     76327.65
    6969.750      4970.90     76277.65
    6970.000      4552.90     76272.65
    6970.250      4119.90     76254.65
    6970.500      3712.90     76228.65
    6970.750      3343.90     76208.65
    6971.000      2987.90     76189.65
    6971.250      2616.90     76114.65
    6971.500      2359.90     76178.65
    6971.750      2139.90     76319.65
    6972.000      1960.90     76333.65
    6972.250      1806.90     76243.65
    6972.500      1670.90     76226.65
    6972.750      1533.90     76332.65
    6973.000      1423.90     76319.65
    6973.250      1323.90     76293.65
    6973.500      1235.90     76324.65
    6973.750      1163.90     76326.65
    6974.000      1087.90     76279.65
    6974.250      1021.90     76264.65
    6974.500       968.90     76318.65
    6974.750       931.90     76314.65
    6975.000       909.90     76269.65
    6975.250       895.90     76209.65
    6975.500       895.90     76033.65
    6975.750       909.90     75779.65
    6976.000       933.90     75673.65
    6976.250       964.90     75654.65
    6976.500      1008.90     75876.65
    6976.750      1071.90     76317.65
    6977.000      1136.90     76672.65
    6977.250      1189.90     76657.65
    6977.500      1246.90     76617.65
    6977.750      1306.90     76591.65
    6978.000      1356.90     76454.65
    6978.250      1412.90     76437.65
    6978.500      1455.90     76365.65
    6978.750      1493.90     76298.65
    6979.000      1532.90     76257.65
    6979.250      1553.90     76246.65
    6979.500      1573.90     76249.65
    6979.750      1589.90     76239.65
    6980.000      1588.90     76238.65
    6980.250      1595.90     76231.65
    6980.500      1596.90     76211.65
    6980.750      1598.90     76195.65
    6981.000      1603.90     76163.65
    6981.250      1610.90     76112.65
    6981.500      1606.90     76081.65
    6981.750      1612.90     76059.65
    6982.000      1632.90     76123.65
    6982.250      1652.90     76135.65
    6982.500      1688.90     76125.65
    6982.750      1719.90     76120.65
    6983.000      1768.90     76110.65
    6983.250      1815.90     76136.65
    6983.500      1877.90     76170.65
    6983.750      1935.90     76353.65
    6984.000      2002.90     76377.65
    6984.250      2055.90     76382.65
    6984.500      2110.90     76342.65
    6984.750      2184.90     76393.65
    6985.000      2238.90     76349.65
    6985.250      2299.90     76372.65
    6985.500      2341.90     76338.65
    6985.750      2381.90     76322.65
    6986.000      2425.90     76307.65
    6986.250      2475.90     76309.65
    6986.500      2524.90     76279.65
    6986.750      2564.90     76225.65
    6987.000      2609.90     76125.65
    6987.250      2657.90     76132.65
    6987.500      2686.90     76216.65
    6987.750      2730.90     76208.65
    6988.000      2761.90     76162.65
    6988.250      2774.90     76129.65
    6988.500      2788.90     76121.65
    6988.750      2803.90     76201.65
    6989.000      2810.90     76152.65
    6989.250      2814.90     76170.65
    6989.500      2808.90     76157.65
    6989.750      2815.90     76325.65
    6990.000      2800.90     76374.65
    6990.250      2791.90     76416.65
    6990.500      2782.90     76415.65
    6990.750      2776.90     76433.65
    6991.000      2776.90     76403.65
    6991.250      2773.90     76398.65
    6991.500      2779.90     76425.65
    6991.750      2784.90     76370.65
    6992.000      2799.90     76401.65
    6992.250      2804.90     76368.65
    6992.500      2806.90     76401.65
    6992.750      2815.90     76354.65
    6993.000      2817.90     76340.65
    6993.250      2818.90     76233.65
    6993.500      2814.90     76173.65
    6993.750      2819.90     76215.65
    6994.000      2825.90     76192.65
    6994.250      2815.90     76122.65
    6994.500      2810.90     76206.65
    6994.750      2801.90     76302.65
    6995.000      2789.90     76281.65
    6995.250      2775.90     76265.65
    6995.500      2771.90     76302.65
    6995.750      2746.90     76312.65
    6996.000      2719.90     76300.65
    6996.250      2698.90     76296.65
    6996.500      2680.90     76265.65
    6996.750      2666.90     76262.65
    6997.000      2653.90     76286.65
    6997.250      2648.90     76263.65
    6997.500      2631.90     76235.65
    6997.750      2620.90     76250.65
    6998.000      2612.90     76217.65
    6998.250      2599.90     76144.65
    6998.500      2598.90     76090.65
    6998.750      2598.90     76121.65
    6999.000      2605.90     76165.65
    6999.250      2612.90     76179.65
    6999.500      2613.90     76188.65
    6999.750      2614.90     76156.65
    7000.000      2617.90     76073.65
    7000.250      2625.90     76079.65
    7000.500      2632.90     76087.65
    7000.750      2631.90     76152.65
    7001.000      2638.90     76161.65
    7001.250      2631.90     76108.65
    7001.500      2636.90     76070.65
    7001.750      2632.90     76247.65
    7002.000      2635.90     76364.65
    7002.935      2607.90     76244.65
    7003.886      2578.90     76248.65
    7004.854      2548.89     76208.64
    7005.840      2513.87     76131.63
    7006.843      2496.85     76102.60
    7007.863      2494.81     76009.56
    7008.900      2527.76     76099.51
    7009.955      2567.69     76021.44
    7011.026      2615.60     76005.35
    7012.115      2645.49     76032.24
    7013.221      2681.35     75976.10
    7014.344      2699.19     75994.94
    7015.483      2728.00     76055.75
    7016.641      2755.77     76032.52
    7017.815      2803.51     76023.27
    7019.006      2855.21     76023.97
    7020.215      2890.88     76015.63
    7021.441      2925.50     76035.26
    7022.684      2951.08     76029.84
    7023.944      2972.61     76019.37
    7025.221      3000.09     76110.84
    7026.515      3020.52     76116.27
    7027.827      3035.89     76278.65
    7029.155      3025.21     76293.97
    7030.501      3016.47     76307.23
    7031.864      2979.67     76196.43
    7033.244      2957.80     76129.56
    7034.641      2958.86     76446.63
    7036.056      2944.86     76413.63
    7037.487      2936.79     76369.56
    7038.936      2924.64     76401.41
    7040.401      2899.41     76503.19
    7041.884      2878.11     76583.89
    7043.384      2841.72     76663.51
    7044.901      2804.25     76558.04
    7046.436      2780.70     76672.48
    7047.987      2764.05     76714.84
    7049.556      2771.32     76750.11
    7051.142      2784.49     76898.28
    7052.744      2802.56     76955.36
    7054.364      2842.53     76884.34
    7056.001      2907.41     76933.22
    7057.656      2988.18     77038.99
    7059.327      3050.84     77092.66
    7061.016      3099.39     77208.22
    7062.722      3121.84     77359.66
    7064.444      3147.17     77557.00
    7066.184      3157.38     77656.22
    7067.941      3154.48     77742.32
    7069.716      3154.45     77855.30
    7071.507      3161.30     77978.16
    7073.315      3159.03     78054.89
    7075.142      3171.62     78267.49
    7076.984      3174.09     78387.97
    7078.844      3174.42     78450.30
    7080.721      3160.62     78592.51
    7082.616      3140.68     78740.58
    7084.527      3139.60     78787.50
    7086.456      3141.37     79011.28
    7088.401      3139.00     79122.92
    7090.364      3170.48     79440.41
    7092.344      3212.81     79662.75
    7094.341      3272.99     79884.94
    7096.355      3339.01     79967.96
    7098.387      3383.87     80175.84
    7100.436      3404.57     80322.55
    7102.501      3423.11     80550.10
    7104.584      3433.49     80698.48
    7106.684      3438.69     80923.70
    7108.801      3438.73     81044.75
    7110.935      3444.59     81270.63
    7113.086      3417.28     81267.33
    7115.255      3406.79     81571.84
    7117.441      3366.12     80823.19
    7119.644      3427.26     82719.35
    7121.863      3425.23     82650.33
    7124.101      3464.00     82933.11
    7126.355      3486.58     82982.71
    7128.626      3520.97     83092.12
    7130.915      3566.17     83356.33
    7133.220      3593.17     83627.34
    7135.543      3650.97     84017.16
    7137.883      3704.56     84425.77
    7140.240      3748.95     84845.17
    7142.614      3776.14     85175.38
    7145.006      3803.11     85598.37
    7147.415      3829.87     85918.15
    7149.840      3859.42     86250.71
    7152.283      3887.75     86618.05
    7154.743      3914.86     86970.19
    7157.220      3947.74     87352.09
    7159.714      3976.41     87791.77
    7162.225      3990.84     88163.23
    7164.754      4003.05     88657.45
    7167.299      4020.02     89115.45
    7169.862      4038.76     89605.21
    7172.442      4056.26     90091.73
    7175.039      4101.52     90681.02
    7177.653      4152.54     91053.06
    7180.285      4210.32     91515.86
    7182.933      4269.85     92098.41
    7185.599      4324.13     92604.72
    7188.282      4384.15     93233.77
    7190.981      4413.93     93693.57
    7193.699      4454.44     94149.11
    7196.433      4495.70     94685.40
    7199.184      4546.70     95066.41
    7201.953      4613.43     95644.18
    7204.738      4660.89     96238.67
    7207.541      4712.09     96818.89
    7210.361      4744.01     97333.84
    7213.198      4785.66     97929.52
    7216.052      4834.03     98512.93
    7218.923      4866.12     99032.05
    7221.812      4875.94     99614.89
    7224.717      4918.47    100230.50
    7227.640      4971.71    100906.70
    7230.580      5055.66    102001.70
    7233.537      5139.32    102661.40
    7236.511      5216.69    103289.80
    7239.503      5308.76    103953.90
    7242.511      5378.53    104800.70
    7245.537      5448.00    105527.20
    7248.580      5491.17    106112.40
    7251.639      5550.03    106930.30
    7254.716      5601.58    107593.90
    7257.811      5668.83    108262.20
    7260.922      5717.75    108908.20
    7264.050      5771.36    109439.80
    7267.196      5799.66    109484.10
    7270.358      5994.63    112872.20
    7273.539      6027.28    113180.90
    7276.735      6073.60    113564.20
    7279.950      6152.60    114200.30
    7283.181      6219.26    114958.00
    7286.429      6296.59    115788.30
    7289.695      6367.58    116658.40
    7292.978      6452.24    117553.10
    7296.277      6539.55    118455.40
    7299.595      6626.52    119297.50
    7302.929      6688.15    119431.10
    7306.280      6842.43    121378.40
    7309.648      6940.35    122355.40
    7313.034      7042.93    123224.00
    7316.437      7131.15    124094.30
    7319.856      7230.01    125149.20
    7323.293      7342.51    126370.80
    7326.748      7409.64    127127.00
    7330.219      7499.41    128257.80
    7333.708      7588.82    129360.20
    7337.213      7686.85    130626.30
    7340.735      7778.51    131611.00
    7344.275      7849.79    132635.40
    7347.833      7979.70    133793.30
    7351.406      8105.23    134866.90
    7354.998      8240.37    136258.10
    7358.606      8369.13    137510.00
    7362.231      8501.50    138784.40
    7365.875      8617.48    139827.40
    7369.534      8745.07    141234.10
    7373.211      8890.26    142398.30
    7376.905      9028.06    143623.20
    7380.617      9177.45    144843.60
    7384.345      9330.44    146231.70
    7388.090      9455.03    147372.30
    7391.853      9576.21    148747.60
    7395.633      9695.98    149901.40
    7399.430      9840.34    151532.80
    7403.244      9978.28    152994.90
    7407.075     10115.81    154218.50
    7410.924     10232.91    155422.60
    7414.789     10309.59    155626.40
    7418.672     10675.85    159835.70
    7422.572     10760.68    159985.60
    7426.489     11018.09    162629.10
    7430.423     11161.06    163696.10
    7434.374     11329.59    164848.70
    7438.342     11490.69    166203.90
    7442.328     11630.35    167738.60
    7446.331     11835.56    169371.90
    7450.350     12031.33    170840.80
    7454.387     12203.66    172300.20
    7458.441     12426.54    173995.10
    7462.512     12623.96    175408.70
    7466.601     12823.93    176995.70
    7470.706     13035.44    178838.30
    7474.829     13232.49    180434.40
    7478.969     13416.08    182302.10
    7483.125     13606.21    183922.30
    7487.300     13814.87    185472.10
    7491.491     14030.06    187383.30
    7495.699     14235.78    189071.10
    7499.925     14447.03    190594.50
    7504.167     14449.79    189499.30
    7508.427     15069.08    196318.70
    7512.704     15177.89    197151.60
    7516.998     15202.21    198243.00
    7521.309     15470.05    199958.00
    7525.638     15817.40    201525.40
