#XDI/1.1  GSE/1.0
# Column.1: energy eV
# Column.2: itrans
# Column.3: i0
# Scan.end_time: 2009-07-06 12:51:11
# Scan.start_time: 2009-07-06 12:33:11
# Element.symbol:  Eu
# Element.edge:  L3
# Mono.d_spacing:  3.13555
# Mono.name: Si 111
# Sample.temperature: room temperature
# Sample.formula: EuO
# Sample.name: EuO
# Sample.prep: powder on tape, many layers, from D. Haskel
# Facility.Name:  APS
# Beamline.Name:  13-BM-D
# Beamline.xray_source:  bending magnet
# Beamline.Storage_Ring_Current: 102.191
# Beamline.I0: 5 nA/V
# Beamline.I1: 1 nA/V
# ScanParameters.E0: 6977.00
# ScanParameters.Legend: Start       Stop       Step       Npts       Time   Kspace?
# ScanParameters.Region1: -150.00    -15.000     5.0000     28.000     1.5000   0
# ScanParameters.Region2: -15.000     25.000    0.25000     161.00     1.5000   0
# ScanParameters.Region3: 2.5616     12.000   0.047429     200.00     1.5000   1
#-------------------------
#  energy  itrans  i0
    6827.000      9809.90     78368.65
    6832.000      9521.90     75387.65
    6837.000      9731.90     76517.65
    6842.000      9721.90     75879.65
    6847.000      9719.90     75331.65
    6852.000      9765.90     74975.65
    6857.000      9809.90     74717.65
    6862.000      9852.90     74626.65
    6867.000      9911.90     74351.65
    6872.000      9978.90     74334.65
    6877.000     10059.90     74197.65
    6882.000     10125.90     74139.65
    6887.000     10204.90     74094.65
    6892.000     10276.90     74096.65
    6897.000     10349.90     73993.65
    6902.000     10432.90     74041.65
    6907.000     10527.90     74026.65
    6912.000     10584.90     73966.65
    6917.000     10663.90     74038.65
    6922.000     10728.90     74046.65
    6927.000     10783.90     74078.65
    6932.000     10845.90     74014.65
    6937.000     10897.90     74099.65
    6942.000     10946.90     74278.65
    6947.000     10930.90     74136.65
    6952.000     10860.90     74295.65
    6957.000     10649.90     74171.65
    6962.000     10063.90     74256.65
    6962.250     10070.90     74637.65
    6962.500     10070.90     75007.65
    6962.750     10042.90     75240.65
    6963.000     10005.90     75375.65
    6963.250      9955.90     75497.65
    6963.500      9903.90     75635.65
    6963.750      9823.90     75617.65
    6964.000      9777.90     75724.65
    6964.250      9698.90     75698.65
    6964.500      9602.90     75671.65
    6964.750      9530.90     75745.65
    6965.000      9412.90     75745.65
    6965.250      9289.90     75701.65
    6965.500      9172.90     75711.65
    6965.750      9054.90     75774.65
    6966.000      8909.90     75819.65
    6966.250      8758.90     75754.65
    6966.500      8612.90     75784.65
    6966.750      8460.90     76007.65
    6967.000      8258.90     75967.65
    6967.250      8032.90     75902.65
    6967.500      7816.90     76016.65
    6967.750      7602.90     76042.65
    6968.000      7340.90     76027.65
    6968.250      7054.90     76048.65
    6968.500      6749.90     76025.65
    6968.750      6417.90     76010.65
    6969.000      6058.90     75935.65
    6969.250      5711.90     75949.65
    6969.500      5287.90     75898.65
    6969.750      4862.90     76010.65
    6970.000      4437.90     75994.65
    6970.250      4007.90     76000.65
    6970.500      3616.90     75964.65
    6970.750      3247.90     75957.65
    6971.000      2901.90     75910.65
    6971.250      2551.90     75876.65
    6971.500      2294.90     75817.65
    6971.750      2092.90     75907.65
    6972.000      1918.90     75915.65
    6972.250      1776.90     75937.65
    6972.500      1635.90     75934.65
    6972.750      1506.90     76154.65
    6973.000      1402.90     76183.65
    6973.250      1309.90     76187.65
    6973.500      1220.90     76158.65
    6973.750      1138.90     76156.65
    6974.000      1065.90     76122.65
    6974.250      1004.90     76058.65
    6974.500       948.90     75982.65
    6974.750       921.90     76018.65
    6975.000       895.90     76013.65
    6975.250       883.90     75864.65
    6975.500       885.90     75793.65
    6975.750       902.90     75537.65
    6976.000       931.90     75407.65
    6976.250       961.90     75439.65
    6976.500      1014.90     75712.65
    6976.750      1067.90     76194.65
    6977.000      1132.90     76479.65
    6977.250      1190.90     76511.65
    6977.500      1242.90     76386.65
    6977.750      1300.90     76368.65
    6978.000      1364.90     76308.65
    6978.250      1415.90     76269.65
    6978.500      1466.90     76161.65
    6978.750      1494.90     76245.65
    6979.000      1532.90     76363.65
    6979.250      1551.90     76370.65
    6979.500      1572.90     76359.65
    6979.750      1582.90     76344.65
    6980.000      1585.90     76329.65
    6980.250      1587.90     76302.65
    6980.500      1595.90     76280.65
    6980.750      1597.90     76240.65
    6981.000      1595.90     76187.65
    6981.250      1596.90     76192.65
    6981.500      1604.90     76155.65
    6981.750      1615.90     76093.65
    6982.000      1626.90     76119.65
    6982.250      1653.90     76179.65
    6982.500      1683.90     76136.65
    6982.750      1721.90     76136.65
    6983.000      1762.90     76114.65
    6983.250      1815.90     76078.65
    6983.500      1872.90     76084.65
    6983.750      1930.90     76098.65
    6984.000      1999.90     76164.65
    6984.250      2054.90     76169.65
    6984.500      2108.90     76147.65
    6984.750      2172.90     76248.65
    6985.000      2235.90     76417.65
    6985.250      2279.90     76364.65
    6985.500      2329.90     76361.65
    6985.750      2381.90     76347.65
    6986.000      2424.90     76313.65
    6986.250      2471.90     76320.65
    6986.500      2515.90     76273.65
    6986.750      2562.90     76287.65
    6987.000      2599.90     76226.65
    6987.250      2643.90     76232.65
    6987.500      2684.90     76260.65
    6987.750      2717.90     76289.65
    6988.000      2741.90     76270.65
    6988.250      2763.90     76223.65
    6988.500      2783.90     76219.65
    6988.750      2790.90     76137.65
    6989.000      2798.90     76092.65
    6989.250      2802.90     76198.65
    6989.500      2794.90     76232.65
    6989.750      2785.90     76228.65
    6990.000      2768.90     76210.65
    6990.250      2764.90     76180.65
    6990.500      2758.90     76148.65
    6990.750      2765.90     76250.65
    6991.000      2770.90     76381.65
    6991.250      2766.90     76389.65
    6991.500      2765.90     76421.65
    6991.750      2771.90     76419.65
    6992.000      2775.90     76402.65
    6992.250      2780.90     76321.65
    6992.500      2784.90     76319.65
    6992.750      2788.90     76308.65
    6993.000      2803.90     76385.65
    6993.250      2802.90     76365.65
    6993.500      2804.90     76258.65
    6993.750      2807.90     76264.65
    6994.000      2808.90     76290.65
    6994.250      2803.90     76318.65
    6994.500      2792.90     76223.65
    6994.750      2780.90     76207.65
    6995.000      2766.90     76277.65
    6995.250      2754.90     76274.65
    6995.500      2744.90     76252.65
    6995.750      2729.90     76244.65
    6996.000      2710.90     76253.65
    6996.250      2681.90     76299.65
    6996.500      2664.90     76342.65
    6996.750      2651.90     76322.65
    6997.000      2650.90     76315.65
    6997.250      2625.90     76315.65
    6997.500      2615.90     76315.65
    6997.750      2602.90     76252.65
    6998.000      2590.90     76229.65
    6998.250      2591.90     76222.65
    6998.500      2584.90     76239.65
    6998.750      2582.90     76209.65
    6999.000      2590.90     76238.65
    6999.250      2596.90     76290.65
    6999.500      2597.90     76260.65
    6999.750      2604.90     76188.65
    7000.000      2606.90     76205.65
    7000.250      2613.90     76146.65
    7000.500      2617.90     76120.65
    7000.750      2624.90     76211.65
    7001.000      2624.90     76170.65
    7001.250      2627.90     76193.65
    7001.500      2625.90     76221.65
    7001.750      2618.90     76184.65
    7002.000      2620.90     76188.65
    7002.935      2591.90     76105.65
    7003.886      2561.90     76010.65
    7004.854      2524.89     76104.64
    7005.840      2498.87     76215.63
    7006.843      2480.85     76141.60
    7007.863      2479.81     76114.56
    7008.900      2517.76     76150.51
    7009.955      2558.69     76136.44
    7011.026      2607.60     76050.35
    7012.115      2643.49     76032.24
    7013.221      2672.35     76106.10
    7014.344      2688.19     75996.94
    7015.483      2718.00     76038.75
    7016.641      2750.77     76126.52
    7017.815      2788.51     76009.27
    7019.006      2843.21     76099.97
    7020.215      2876.88     76055.63
    7021.441      2904.50     76010.26
    7022.684      2936.08     75966.84
    7023.944      2965.61     76065.37
    7025.221      2983.09     76074.84
    7026.515      3004.52     76102.27
    7027.827      3017.89     76078.65
    7029.155      3009.21     76124.97
    7030.501      2987.47     76129.23
    7031.864      2956.67     75985.43
    7033.244      2933.80     76107.56
    7034.641      2937.86     76468.63
    7036.056      2926.86     76412.63
    7037.487      2924.79     76447.56
    7038.936      2908.64     76537.41
    7040.401      2894.41     76619.19
    7041.884      2864.11     76634.89
    7043.384      2829.72     76719.51
    7044.901      2790.25     76721.04
    7046.436      2764.70     76817.48
    7047.987      2754.05     76769.84
    7049.556      2748.32     76857.11
    7051.142      2766.49     77022.28
    7052.744      2794.56     77065.36
    7054.364      2835.53     76974.34
    7056.001      2902.41     77044.22
    7057.656      2987.18     77121.99
    7059.327      3046.84     77100.66
    7061.016      3088.39     77253.22
    7062.722      3100.84     77387.66
    7064.444      3114.17     77476.00
    7066.184      3128.38     77552.22
    7067.941      3128.48     77622.32
    7069.716      3130.45     77720.30
    7071.507      3138.30     77912.16
    7073.315      3136.03     77956.89
    7075.142      3146.62     78143.49
    7076.984      3164.09     78296.97
    7078.844      3156.42     78389.30
    7080.721      3140.62     78486.51
    7082.616      3126.68     78576.58
    7084.527      3109.60     78722.50
    7086.456      3103.37     78858.28
    7088.401      3119.00     78923.92
    7090.364      3135.48     79299.41
    7092.344      3183.81     79494.75
    7094.341      3243.99     79722.94
    7096.355      3309.01     79779.96
    7098.387      3351.87     79963.84
    7100.436      3382.57     80063.55
    7102.501      3396.11     80339.10
    7104.584      3409.49     80459.48
    7106.684      3407.69     80705.70
    7108.801      3417.73     80911.75
    7110.935      3421.59     81039.63
    7113.086      3386.28     81067.33
    7115.255      3372.79     81412.84
    7117.441      3326.12     80617.19
    7119.644      3396.26     82689.35
    7121.863      3412.23     82751.33
    7124.101      3447.00     83031.11
    7126.355      3466.58     83113.71
    7128.626      3495.97     83257.12
    7130.915      3539.17     83377.33
    7133.220      3585.17     83706.34
    7135.543      3639.97     84072.16
    7137.883      3683.56     84552.77
    7140.240      3737.95     84925.17
    7142.614      3765.14     85328.38
    7145.006      3804.11     85724.37
    7147.415      3811.87     86009.15
    7149.840      3851.42     86366.71
    7152.283      3878.75     86721.05
    7154.743      3907.86     87110.19
    7157.220      3926.74     87452.09
    7159.714      3949.41     87849.77
    7162.225      3969.84     88241.23
    7164.754      3981.05     88672.45
    7167.299      4000.02     88977.45
    7169.862      4002.76     89327.21
    7172.442      4027.26     89866.73
    7175.039      4065.52     90359.02
    7177.653      4113.54     90831.06
    7180.285      4168.32     91354.86
    7182.933      4239.85     92003.41
    7185.599      4288.13     92456.72
    7188.282      4340.15     92974.77
    7190.981      4356.93     93425.57
    7193.699      4404.44     93979.11
    7196.433      4451.70     94553.40
    7199.184      4491.70     94953.41
    7201.953      4556.43     95543.18
    7204.738      4616.89     96120.67
    7207.541      4665.09     96755.89
    7210.361      4712.01     97309.84
    7213.198      4758.66     97936.52
    7216.052      4801.03     98559.93
    7218.923      4827.12     99118.05
    7221.812      4850.94     99724.89
    7224.717      4896.47    100246.50
    7227.640      4956.71    101028.70
    7230.580      5012.66    101613.70
    7233.537      5089.32    102203.40
    7236.511      5166.69    102852.80
    7239.503      5248.76    103741.90
    7242.511      5344.53    104797.70
    7245.537      5410.00    105409.20
    7248.580      5456.17    106100.40
    7251.639      5511.03    106773.30
    7254.716      5577.58    107496.90
    7257.811      5618.83    108222.20
    7260.922      5667.75    108812.20
    7264.050      5705.36    109237.80
    7267.196      5753.66    109666.10
    7270.358      5926.63    112724.20
    7273.539      5976.28    113067.90
    7276.735      6026.60    113470.20
    7279.950      6101.60    114251.30
    7283.181      6161.26    114802.00
    7286.429      6231.59    115570.30
    7289.695      6316.58    116476.40
    7292.978      6401.24    117390.10
    7296.277      6484.55    118254.40
    7299.595      6571.52    119123.50
    7302.929      6622.15    119126.10
    7306.280      6807.43    121569.40
    7309.648      6890.35    122406.40
    7313.034      7012.93    123352.00
    7316.437      7081.15    124154.30
    7319.856      7193.01    125246.20
    7323.293      7290.51    126463.80
    7326.748      7353.64    127132.00
    7330.219      7461.41    128293.80
    7333.708      7542.82    129419.20
    7337.213      7647.85    130629.30
    7340.735      7729.51    131587.00
    7344.275      7814.79    132631.40
    7347.833      7930.70    133773.30
    7351.406      8035.23    134732.90
    7354.998      8160.37    135982.10
    7358.606      8275.13    136969.00
    7362.231      8429.50    138240.40
    7365.875      8552.48    139707.40
    7369.534      8694.07    141083.10
    7373.211      8820.26    142168.30
    7376.905      8950.06    143413.20
    7380.617      9093.45    144563.60
    7384.345      9243.44    145957.70
    7388.090      9392.03    147137.30
    7391.853      9528.21    148644.60
    7395.633      9641.98    149779.40
    7399.430      9785.34    151271.80
    7403.244      9907.28    152635.90
    7407.075     10036.81    153927.50
    7410.924     10157.91    155132.60
    7414.789     10232.59    155421.40
    7418.672     10534.85    158837.70
    7422.572     10621.68    159210.60
    7426.489     10900.09    162324.10
    7430.423     11035.06    163276.10
    7434.374     11191.59    164402.70
    7438.342     11389.69    165964.90
    7442.328     11560.35    167355.60
    7446.331     11739.56    169095.90
    7450.350     11941.33    170667.80
    7454.387     12129.66    172117.20
    7458.441     12336.54    173815.10
    7462.512     12500.96    175069.70
    7466.601     12734.93    176908.70
    7470.706     12920.44    178505.30
    7474.829     13125.49    180250.40
    7478.969     13262.08    181971.10
    7483.125     13498.21    183960.30
    7487.300     13693.87    185522.10
    7491.491     13915.06    187384.30
    7495.699     14136.78    189239.10
    7499.925     14363.03    190732.50
    7504.167     14368.79    189719.30
    7508.427     14960.08    196312.70
    7512.704     15095.89    197227.60
    7516.998     15121.21    198615.00
    7521.309     15392.05    200177.00
    7525.638     15719.40    201887.40
