#XDI/1.1  GSE/1.0
# Column.1: energy eV
# Column.2: itrans
# Column.3: i0
# Scan.end_time: 2009-07-07 09:13:10
# Scan.start_time: 2009-07-07 08:54:51
# Element.symbol:  Eu
# Element.edge:  L3
# Mono.d_spacing:  3.13555
# Mono.name: Si 111
# Sample.temperature: room temperature
# Sample.formula: EuO
# Sample.name: EuO
# Sample.prep: powder on tape, many layers, from D. Haskel
# Facility.Name:  APS
# Beamline.Name:  13-BM-D
# Beamline.xray_source:  bending magnet
# Beamline.Storage_Ring_Current: 102.191
# Beamline.I0: 5 nA/V
# Beamline.I1: 1 nA/V
# ScanParameters.E0: 6977.00
# ScanParameters.Legend: Start       Stop       Step       Npts       Time   Kspace?
# ScanParameters.Region1: -150.00    -15.000     5.0000     28.000     1.5000   0
# ScanParameters.Region2: -15.000     25.000    0.25000     161.00     1.5000   0
# ScanParameters.Region3: 2.5616     12.000   0.047429     200.00     1.5000   1
#-------------------------
#  energy  itrans  i0
    6827.000     15989.90    109561.60
    6832.000     15538.90    105728.60
    6837.000     15858.90    107106.60
    6842.000     15850.90    106164.60
    6847.000     15912.90    105824.60
    6852.000     15982.90    105546.60
    6857.000     16088.90    105491.60
    6862.000     16196.90    105237.60
    6867.000     16300.90    105253.60
    6872.000     16428.90    105196.60
    6877.000     16538.90    105235.60
    6882.000     16681.90    105188.60
    6887.000     16799.90    105209.60
    6892.000     16927.90    105201.60
    6897.000     17038.90    105189.60
    6902.000     17155.90    105159.60
    6907.000     17283.90    105268.60
    6912.000     17421.90    105198.60
    6917.000     17532.90    105333.60
    6922.000     17617.90    105205.60
    6927.000     17745.90    105400.60
    6932.000     17802.90    105154.60
    6937.000     17876.90    105204.60
    6942.000     17940.90    105262.60
    6947.000     17876.90    105222.60
    6952.000     17764.90    105274.60
    6957.000     17426.90    105273.60
    6962.000     16500.90    105273.60
    6962.250     16488.90    105761.60
    6962.500     16472.90    106202.60
    6962.750     16410.90    106432.60
    6963.000     16335.90    106531.60
    6963.250     16273.90    106720.60
    6963.500     16181.90    106729.60
    6963.750     16055.90    106787.60
    6964.000     15945.90    106844.60
    6964.250     15838.90    106890.60
    6964.500     15684.90    106861.60
    6964.750     15544.90    106891.60
    6965.000     15380.90    106828.60
    6965.250     15190.90    106775.60
    6965.500     14984.90    106707.60
    6965.750     14793.90    106762.60
    6966.000     14578.90    106776.60
    6966.250     14349.90    106691.60
    6966.500     14068.90    106717.60
    6966.750     13797.90    106685.60
    6967.000     13521.90    106755.60
    6967.250     13172.90    106783.60
    6967.500     12829.90    106764.60
    6967.750     12454.90    106767.60
    6968.000     12054.90    106778.60
    6968.250     11657.90    106958.60
    6968.500     11215.90    107185.60
    6968.750     10673.90    107160.60
    6969.000     10128.90    107121.60
    6969.250      9544.90    107146.60
    6969.500      8870.90    107106.60
    6969.750      8218.90    107088.60
    6970.000      7535.90    107104.60
    6970.250      6853.90    107109.60
    6970.500      6195.90    107111.60
    6970.750      5585.90    107082.60
    6971.000      5012.90    107032.60
    6971.250      4438.90    107062.60
    6971.500      3993.90    107037.60
    6971.750      3630.90    107011.60
    6972.000      3323.90    107014.60
    6972.250      3079.90    107025.60
    6972.500      2853.90    107015.60
    6972.750      2632.90    107000.60
    6973.000      2452.90    106982.60
    6973.250      2288.90    106932.60
    6973.500      2139.90    106873.60
    6973.750      2008.90    106869.60
    6974.000      1871.90    106864.60
    6974.250      1770.90    106821.60
    6974.500      1680.90    106859.60
    6974.750      1628.90    106915.60
    6975.000      1585.90    106852.60
    6975.250      1557.90    106738.60
    6975.500      1558.90    106459.60
    6975.750      1583.90    106240.60
    6976.000      1617.90    106114.60
    6976.250      1663.90    106133.60
    6976.500      1748.90    106375.60
    6976.750      1841.90    107028.60
    6977.000      1935.90    107430.60
    6977.250      2031.90    107441.60
    6977.500      2115.90    107363.60
    6977.750      2205.90    107203.60
    6978.000      2300.90    107072.60
    6978.250      2394.90    107023.60
    6978.500      2457.90    106868.60
    6978.750      2526.90    106832.60
    6979.000      2573.90    106791.60
    6979.250      2613.90    106810.60
    6979.500      2640.90    106766.60
    6979.750      2659.90    106791.60
    6980.000      2660.90    106789.60
    6980.250      2674.90    106997.60
    6980.500      2676.90    107114.60
    6980.750      2671.90    107081.60
    6981.000      2670.90    107063.60
    6981.250      2680.90    107028.60
    6981.500      2683.90    107001.60
    6981.750      2692.90    107061.60
    6982.000      2713.90    106985.60
    6982.250      2734.90    106952.60
    6982.500      2793.90    106965.60
    6982.750      2841.90    106925.60
    6983.000      2913.90    106925.60
    6983.250      2981.90    106929.60
    6983.500      3082.90    106948.60
    6983.750      3181.90    106946.60
    6984.000      3285.90    106902.60
    6984.250      3371.90    106889.60
    6984.500      3463.90    106844.60
    6984.750      3557.90    106867.60
    6985.000      3645.90    106796.60
    6985.250      3732.90    106785.60
    6985.500      3821.90    106727.60
    6985.750      3902.90    106735.60
    6986.000      3983.90    106773.60
    6986.250      4061.90    106789.60
    6986.500      4133.90    106779.60
    6986.750      4210.90    106767.60
    6987.000      4277.90    106727.60
    6987.250      4355.90    106766.60
    6987.500      4420.90    106767.60
    6987.750      4472.90    106713.60
    6988.000      4531.90    106765.60
    6988.250      4567.90    106726.60
    6988.500      4588.90    106641.60
    6988.750      4610.90    106606.60
    6989.000      4621.90    106585.60
    6989.250      4621.90    106553.60
    6989.500      4618.90    106616.60
    6989.750      4607.90    106650.60
    6990.000      4600.90    106672.60
    6990.250      4580.90    106589.60
    6990.500      4570.90    106571.60
    6990.750      4560.90    106530.60
    6991.000      4540.90    106570.60
    6991.250      4544.90    106616.60
    6991.500      4556.90    106631.60
    6991.750      4557.90    106605.60
    6992.000      4565.90    106527.60
    6992.250      4579.90    106626.60
    6992.500      4605.90    106866.60
    6992.750      4607.90    106833.60
    6993.000      4618.90    106841.60
    6993.250      4633.90    106869.60
    6993.500      4645.90    106860.60
    6993.750      4640.90    106826.60
    6994.000      4640.90    106789.60
    6994.250      4636.90    106842.60
    6994.500      4626.90    106793.60
    6994.750      4604.90    106740.60
    6995.000      4594.90    106772.60
    6995.250      4573.90    106871.60
    6995.500      4552.90    106825.60
    6995.750      4518.90    106830.60
    6996.000      4495.90    106827.60
    6996.250      4457.90    106828.60
    6996.500      4430.90    106825.60
    6996.750      4403.90    106795.60
    6997.000      4391.90    106792.60
    6997.250      4357.90    106819.60
    6997.500      4336.90    106756.60
    6997.750      4318.90    106768.60
    6998.000      4301.90    106716.60
    6998.250      4310.90    106908.60
    6998.500      4294.90    106956.60
    6998.750      4290.90    106957.60
    6999.000      4306.90    106947.60
    6999.250      4311.90    106934.60
    6999.500      4312.90    106897.60
    6999.750      4322.90    106896.60
    7000.000      4331.90    106909.60
    7000.250      4344.90    106898.60
    7000.500      4350.90    106891.60
    7000.750      4359.90    106848.60
    7001.000      4356.90    106857.60
    7001.250      4360.90    106815.60
    7001.500      4349.90    106752.60
    7001.750      4350.90    106749.60
    7002.000      4340.90    106702.60
    7002.935      4311.90    106781.60
    7003.886      4271.90    106779.60
    7004.854      4197.89    106694.60
    7005.840      4141.87    106659.60
    7006.843      4120.85    106572.60
    7007.863      4113.81    106542.60
    7008.900      4174.76    106543.50
    7009.955      4235.69    106543.40
    7011.026      4314.60    106562.40
    7012.115      4382.49    106736.20
    7013.221      4421.35    106716.10
    7014.344      4441.19    106650.90
    7015.483      4487.00    106789.80
    7016.641      4542.77    106787.50
    7017.815      4620.51    106844.30
    7019.006      4686.21    106706.00
    7020.215      4764.88    106756.60
    7021.441      4804.50    106704.30
    7022.684      4849.08    106796.80
    7023.944      4890.61    106821.40
    7025.221      4922.09    106712.80
    7026.515      4951.52    106782.30
    7027.827      4968.89    106783.60
    7029.155      4964.21    106811.00
    7030.501      4935.47    106829.20
    7031.864      4890.67    106817.40
    7033.244      4840.80    106480.60
    7034.641      4849.86    107193.60
    7036.056      4818.86    107075.60
    7037.487      4825.79    107132.60
    7038.936      4797.64    107102.40
    7040.401      4773.41    107215.20
    7041.884      4737.11    107354.90
    7043.384      4674.72    107393.50
    7044.901      4608.25    107432.00
    7046.436      4575.70    107533.50
    7047.987      4546.05    107560.80
    7049.556      4554.32    107635.10
    7051.142      4572.48    107730.30
    7052.744      4610.56    107854.40
    7054.364      4673.53    107870.30
    7056.001      4773.41    107911.20
    7057.656      4903.18    107988.00
    7059.327      5000.84    108083.70
    7061.016      5082.40    108268.20
    7062.722      5113.84    108434.70
    7064.444      5141.17    108600.00
    7066.184      5158.38    108701.20
    7067.941      5164.48    108808.30
    7069.716      5167.45    109024.30
    7071.507      5172.30    109127.20
    7073.315      5174.03    109324.90
    7075.142      5180.62    109503.50
    7076.984      5201.09    109718.00
    7078.844      5197.42    109824.30
    7080.721      5181.62    110044.50
    7082.616      5168.68    110398.60
    7084.527      5153.60    110807.50
    7086.456      5136.37    110903.30
    7088.401      5148.00    111290.90
    7090.364      5190.48    111452.40
    7092.344      5266.81    111904.80
    7094.341      5350.98    112149.90
    7096.355      5457.01    112297.00
    7098.387      5529.87    112527.80
    7100.436      5594.57    112692.50
    7102.501      5636.11    113158.10
    7104.584      5615.49    113218.50
    7106.684      5633.69    113505.70
    7108.801      5642.73    113807.80
    7110.935      5632.59    113989.60
    7113.086      5605.28    114147.30
    7115.255      5577.79    114610.80
    7117.441      5491.12    113384.20
    7119.644      5618.27    116204.40
    7121.864      5635.23    116241.30
    7124.101      5675.00    116465.10
    7126.355      5712.58    116707.70
    7128.626      5754.98    116910.10
    7130.915      5810.17    117074.30
    7133.220      5910.17    117888.30
    7135.543      5996.97    118590.20
    7137.883      6087.56    119171.80
    7140.240      6140.95    119739.20
    7142.614      6205.14    120298.40
    7145.006      6247.11    120802.40
    7147.415      6295.87    121324.10
    7149.840      6333.42    121760.70
    7152.283      6363.75    122215.10
    7154.743      6421.86    122673.20
    7157.220      6470.74    123285.10
    7159.714      6498.41    123801.80
    7162.226      6543.84    124429.20
    7164.754      6552.05    125021.50
    7167.299      6589.02    125541.50
    7169.862      6600.76    126030.20
    7172.442      6636.26    126833.70
    7175.039      6702.52    127550.00
    7177.653      6761.54    128058.10
    7180.285      6871.32    128728.90
    7182.933      6974.85    129472.40
    7185.599      7045.13    130188.70
    7188.282      7120.15    130909.80
    7190.981      7193.93    131501.60
    7193.699      7260.44    132297.10
    7196.433      7327.70    133071.40
    7199.184      7411.70    133726.40
    7201.953      7497.43    134477.20
    7204.738      7586.89    135244.70
    7207.541      7665.09    136020.90
    7210.361      7729.01    136824.80
    7213.198      7797.66    137680.50
    7216.052      7884.03    138586.90
    7218.923      7920.12    139342.00
    7221.812      7961.94    140138.90
    7224.717      8030.47    141010.50
    7227.640      8118.71    141895.70
    7230.580      8226.66    142839.70
    7233.537      8369.32    143631.40
    7236.511      8477.69    144650.80
    7239.503      8600.76    145675.90
    7242.511      8757.53    146860.70
    7245.537      8866.00    148232.20
    7248.580      8962.17    149331.40
    7251.640      9066.03    150169.30
    7254.716      9121.58    151090.90
    7257.811      9200.83    152106.20
    7260.922      9308.75    153059.20
    7264.050      9405.36    153810.80
    7267.196      9356.66    152636.20
    7270.358      9777.63    158863.20
    7273.539      9801.28    159104.90
    7276.735      9862.60    159695.20
    7279.950      9979.59    160692.30
    7283.181     10086.26    161521.00
    7286.429     10224.59    162540.30
    7289.695     10308.58    163779.40
    7292.978     10437.24    165199.10
    7296.277     10585.55    166310.40
    7299.595     10714.52    167539.50
    7302.929     10809.15    167872.10
    7306.280     11084.43    170811.50
    7309.648     11267.35    172576.40
    7313.034     11418.93    173775.00
    7316.437     11591.15    174963.30
    7319.856     11735.01    176491.20
    7323.293     11901.51    177946.80
    7326.748     12018.64    179273.00
    7330.219     12167.41    180620.80
    7333.708     12327.82    182252.30
    7337.213     12471.85    183900.30
    7340.735     12606.51    185407.00
    7344.275     12739.79    186915.40
    7347.833     12920.70    188518.30
    7351.407     13106.23    190095.90
    7354.998     13295.37    191671.10
    7358.606     13506.13    193279.00
    7362.232     13681.50    194900.40
    7365.875     13872.48    196636.40
    7369.534     14106.07    198575.10
    7373.211     14349.26    200281.30
    7376.905     14501.05    201864.20
    7380.617     14777.45    203745.60
    7384.345     14996.44    205336.70
    7388.090     15205.03    207013.30
    7391.853     15461.21    209121.60
    7395.633     15591.98    210687.40
    7399.430     15844.34    212919.80
    7403.244     16017.28    214609.90
    7407.075     16278.81    216570.50
    7410.924     16473.91    218181.60
    7414.789     16541.60    217912.40
    7418.672     17060.85    223624.70
    7422.572     17185.68    223412.60
    7426.489     17683.09    228049.10
    7430.423     17929.05    229445.10
    7434.374     18154.59    231201.70
    7438.342     18428.69    233282.90
    7442.328     18696.35    235354.60
    7446.331     18988.56    237524.90
    7450.350     19244.33    239571.80
    7454.387     19550.66    241812.20
    7458.441     19890.54    244292.10
    7462.513     20133.96    246195.70
    7466.601     20515.93    248654.70
    7470.707     20806.44    250792.30
    7474.829     21077.49    253119.40
    7478.969     21378.08    255441.10
    7483.126     21728.21    258202.30
    7487.300     22036.87    260507.10
    7491.491     22372.06    263034.30
    7495.699     22713.78    265649.20
    7499.925     23048.03    267993.50
    7504.167     23074.79    266654.30
    7508.427     24038.08    276477.70
    7512.704     24174.89    277156.60
    7516.998     24220.21    278723.00
    7521.310     24686.05    281129.00
    7525.638     25167.40    283517.40
