#XDI/1.1  GSE/1.0
# Column.1: energy eV
# Column.2: itrans
# Column.3: i0
# Scan.end_time: 2009-07-07 13:10:08
# Scan.start_time: 2009-07-07 12:51:48
# Element.symbol:  Eu
# Element.edge:  L3
# Facility.Name:  APS
# Beamline.Name:  13-BM-D
# Beamline.xray_source:  bending magnet
# Mono.dspacing:  3.13555
# Mono.name: Si 111
# Beamline.Storage_Ring_Current: 102.037 || S:SRcurrentAI.VAL
# Beamline.FOE_Mono_angle_readback: 16.8344 || 13BMA:m17.RBV
# Beamline.Mono_Energy_drive_val: 6827.0000 || 13BMA:E:Energy.VAL
# Beamline.Mono_Energy_readback: 6822.0052 || 13BMA:E:E_RBV
# Beamline.Mono_Beam_Offset: 20.0000 || 13BMA:E:height.VAL
# Beamline.I0_sensitivity_value: 5 || 13BMD:A3sens_num.VAL
# Beamline.I0_sensitivity_value: nA/V || 13BMD:A3sens_unit.VAL
# Beamline.I1_sensitivity_value: 1 || 13BMD:A2sens_num.VAL
# Beamline.I1_sensitivity_value: nA/V || 13BMD:A2sens_unit.VAL
# Beamline.FOE_Mono_Yout: 10.7015 || 13BMA:m10.VAL
# Beamline.FOE_Mono_Yin: 10.9127 || 13BMA:m11.VAL
# Beamline.FOE_Mono_Yup: 9.9950 || 13BMA:m12.VAL
# Beamline.FOE_Mono_Cage_Y: -0.505 || 13BMA:m13.VAL
# Beamline.FOE_Mono_Z: 36.417 || 13BMA:m14.VAL
# Beamline.FOE_Mono_angle: 16.8340 || 13BMA:m17.VAL
# Beamline.BMD_Horiz_Width: 3.000 || 13BMD:BMDHt2.C
# Beamline.BMD_Horiz_Center: 3.000 || 13BMD:BMDHt2.D
# Beamline.BMD_Vertical_Width: 1.800 || 13BMD:BMDVt2.C
# Beamline.BMD_Vertical_Center: -14.000 || 13BMD:BMDVt2.D
# Beamline.Sample_X: 99.3718 || 13BMD:m82.VAL
# Beamline.Sample_Y__height: 63.7344 || 13BMD:m81.VAL
# Beamline.Sample_Z__focus: 79.895 || 13BMD:m39.VAL
# Beamline._13GE2_med_dxp1_PKTM: 2.00 us || 
# ScanParameters.Start: Scan.Member: Value
# ScanParameters.E0: 6977.00
# ScanParameters.Legend: Start       Stop       Step       Npts       Time   Kspace?
# ScanParameters.Region1: -150.00    -15.000     5.0000     28.000     1.5000   0
# ScanParameters.Region2: -15.000     25.000    0.25000     161.00     1.5000   0
# ScanParameters.Region3: 2.5616     12.000   0.047429     200.00     1.5000   1
# ScanParameters.End: here
#-------------------------
#  energy  itrans  i0
    6827.000     10687.90     78688.65 
    6832.000     10503.90     76424.65 
    6837.000     10571.90     76570.65 
    6842.000     10563.90     75895.65 
    6847.000     10600.90     75468.65 
    6852.000     10638.90     75134.65 
    6857.000     10733.90     75193.65 
    6862.000     10784.90     75085.65 
    6867.000     10853.90     74951.65 
    6872.000     10927.90     74883.65 
    6877.000     10994.90     74789.65 
    6882.000     11059.90     74762.65 
    6887.000     11162.90     74758.65 
    6892.000     11236.90     74708.65 
    6897.000     11317.90     74648.65 
    6902.000     11384.90     74730.65 
    6907.000     11481.90     74761.65 
    6912.000     11552.90     74723.65 
    6917.000     11631.90     74756.65 
    6922.000     11698.90     74765.65 
    6927.000     11790.90     74812.65 
    6932.000     11827.90     74720.65 
    6937.000     11862.90     74608.65 
    6942.000     11900.90     74714.65 
    6947.000     11870.90     74651.65 
    6952.000     11816.90     74800.65 
    6957.000     11594.90     74842.65 
    6962.000     10940.90     74717.65 
    6962.250     10956.90     75194.65 
    6962.500     10935.90     75485.65 
    6962.750     10922.90     75711.65 
    6963.000     10881.90     75848.65 
    6963.250     10826.90     75979.65 
    6963.500     10755.90     75952.65 
    6963.750     10682.90     76015.65 
    6964.000     10598.90     75941.65 
    6964.250     10527.90     76066.65 
    6964.500     10426.90     75992.65 
    6964.750     10322.90     76046.65 
    6965.000     10237.90     76082.65 
    6965.250     10096.90     76030.65 
    6965.500      9967.90     76013.65 
    6965.750      9852.90     76121.65 
    6966.000      9698.90     76036.65 
    6966.250      9528.90     75969.65 
    6966.500      9372.90     76050.65 
    6966.750      9185.90     76025.65 
    6967.000      8991.90     75972.65 
    6967.250      8777.90     76098.65 
    6967.500      8538.90     76045.65 
    6967.750      8273.90     75990.65 
    6968.000      8029.90     76017.65 
    6968.250      7745.90     76031.65 
    6968.500      7436.90     76035.65 
    6968.750      7094.90     76129.65 
    6969.000      6743.90     76242.65 
    6969.250      6368.90     76204.65 
    6969.500      5927.90     76116.65 
    6969.750      5476.90     76191.65 
    6970.000      5040.90     76137.65 
    6970.250      4566.90     76065.65 
    6970.500      4122.90     76178.65 
    6970.750      3726.90     76221.65 
    6971.000      3328.90     76198.65 
    6971.250      2931.90     76207.65 
    6971.500      2616.90     76155.65 
    6971.750      2372.90     76178.65 
    6972.000      2166.90     76099.65 
    6972.250      1996.90     76198.65 
    6972.500      1846.90     76202.65 
    6972.750      1688.90     76124.65 
    6973.000      1560.90     76084.65 
    6973.250      1446.90     76001.65 
    6973.500      1356.90     76097.65 
    6973.750      1264.90     76040.65 
    6974.000      1184.90     75974.65 
    6974.250      1112.90     76027.65 
    6974.500      1055.90     76016.65 
    6974.750      1012.90     76090.65 
    6975.000       980.90     76150.65 
    6975.250       963.90     75985.65 
    6975.500       958.90     75886.65 
    6975.750       969.90     75692.65 
    6976.000       989.90     75575.65 
    6976.250      1021.90     75566.65 
    6976.500      1074.90     75859.65 
    6976.750      1132.90     76280.65 
    6977.000      1184.90     76631.65 
    6977.250      1247.90     76598.65 
    6977.500      1304.90     76623.65 
    6977.750      1369.90     76421.65 
    6978.000      1430.90     76361.65 
    6978.250      1492.90     76280.65 
    6978.500      1539.90     76266.65 
    6978.750      1581.90     76224.65 
    6979.000      1613.90     76130.65 
    6979.250      1638.90     76146.65 
    6979.500      1656.90     76159.65 
    6979.750      1669.90     76138.65 
    6980.000      1683.90     76110.65 
    6980.250      1681.90     76064.65 
    6980.500      1690.90     76190.65 
    6980.750      1685.90     76419.65 
    6981.000      1691.90     76417.65 
    6981.250      1682.90     76330.65 
    6981.500      1692.90     76289.65 
    6981.750      1699.90     76297.65 
    6982.000      1704.90     76381.65 
    6982.250      1717.90     76295.65 
    6982.500      1751.90     76314.65 
    6982.750      1782.90     76200.65 
    6983.000      1826.90     76301.65 
    6983.250      1872.90     76239.65 
    6983.500      1938.90     76230.65 
    6983.750      1999.90     76202.65 
    6984.000      2070.90     76285.65 
    6984.250      2125.90     76177.65 
    6984.500      2186.90     76149.65 
    6984.750      2249.90     76213.65 
    6985.000      2312.90     76053.65 
    6985.250      2373.90     76161.65 
    6985.500      2425.90     76112.65 
    6985.750      2481.90     76121.65 
    6986.000      2539.90     76104.65 
    6986.250      2584.90     76079.65 
    6986.500      2645.90     76166.65 
    6986.750      2688.90     76126.65 
    6987.000      2728.90     76077.65 
    6987.250      2783.90     76204.65 
    6987.500      2828.90     76158.65 
    6987.750      2865.90     76127.65 
    6988.000      2904.90     76151.65 
    6988.250      2934.90     76159.65 
    6988.500      2947.90     76100.65 
    6988.750      2953.90     76061.65 
    6989.000      2965.90     76133.65 
    6989.250      2965.90     76081.65 
    6989.500      2973.90     76026.65 
    6989.750      2965.90     76091.65 
    6990.000      2951.90     76026.65 
    6990.250      2944.90     76012.65 
    6990.500      2939.90     76066.65 
    6990.750      2926.90     75986.65 
    6991.000      2925.90     76035.65 
    6991.250      2916.90     75982.65 
    6991.500      2911.90     75899.65 
    6991.750      2929.90     76013.65 
    6992.000      2931.90     75954.65 
    6992.250      2947.90     76047.65 
    6992.500      2954.90     75975.65 
    6992.750      2958.90     75955.65 
    6993.000      2970.90     76002.65 
    6993.250      2972.90     75940.65 
    6993.500      2974.90     75922.65 
    6993.750      2978.90     75946.65 
    6994.000      2979.90     75836.65 
    6994.250      2970.90     75949.65 
    6994.500      2967.90     75964.65 
    6994.750      2955.90     75937.65 
    6995.000      2942.90     75903.65 
    6995.250      2937.90     76015.65 
    6995.500      2924.90     75978.65 
    6995.750      2904.90     75882.65 
    6996.000      2878.90     75891.65 
    6996.250      2857.90     75966.65 
    6996.500      2837.90     75874.65 
    6996.750      2810.90     75855.65 
    6997.000      2801.90     75909.65 
    6997.250      2793.90     75839.65 
    6997.500      2779.90     75749.65 
    6997.750      2763.90     75832.65 
    6998.000      2753.90     75815.65 
    6998.250      2754.90     75872.65 
    6998.500      2745.90     75963.65 
    6998.750      2759.90     76072.65 
    6999.000      2750.90     75989.65 
    6999.250      2746.90     76006.65 
    6999.500      2755.90     76087.65 
    6999.750      2764.90     76063.65 
    7000.000      2773.90     75957.65 
    7000.250      2774.90     75947.65 
    7000.500      2785.90     76016.65 
    7000.750      2793.90     75933.65 
    7001.000      2786.90     75892.65 
    7001.250      2790.90     75965.65 
    7001.500      2784.90     75844.65 
    7001.750      2792.90     75922.65 
    7002.000      2783.90     75885.65 
    7002.935      2758.90     75805.65 
    7003.886      2723.90     75769.65 
    7004.854      2688.89     75786.64 
    7005.840      2648.87     75691.63 
    7006.843      2623.85     75742.60 
    7007.863      2637.81     75716.56 
    7008.900      2663.76     75650.51 
    7009.955      2705.69     75665.44 
    7011.026      2756.60     75685.35 
    7012.115      2799.49     75780.24 
    7013.221      2832.35     75841.10 
    7014.344      2851.19     75815.94 
    7015.483      2861.00     75903.75 
    7016.641      2907.77     75973.52 
    7017.815      2958.51     75913.27 
    7019.006      3006.21     75913.97 
    7020.215      3059.88     75926.63 
    7021.441      3080.50     75845.26 
    7022.684      3109.08     75829.84 
    7023.944      3139.61     75865.37 
    7025.221      3155.09     75884.84 
    7026.515      3170.52     75937.27 
    7027.827      3188.89     75940.65 
    7029.155      3182.21     75906.97 
    7030.501      3161.47     75913.23 
    7031.864      3134.67     75868.43 
    7033.244      3105.80     75624.56 
    7034.641      3109.86     76072.63 
    7036.056      3099.86     76059.63 
    7037.487      3093.79     75997.56 
    7038.936      3080.64     76025.41 
    7040.401      3064.41     76037.19 
    7041.884      3040.11     76086.89 
    7043.384      2994.72     76172.51 
    7044.901      2970.25     76424.04 
    7046.436      2939.70     76509.48 
    7047.987      2927.05     76589.84 
    7049.556      2930.32     76707.11 
    7051.142      2937.49     76754.28 
    7052.744      2963.56     76788.36 
    7054.364      2998.53     76807.34 
    7056.001      3065.41     76817.22 
    7057.656      3156.18     76927.99 
    7059.327      3226.84     76928.66 
    7061.016      3270.39     77088.22 
    7062.722      3292.84     77176.66 
    7064.444      3302.17     77262.00 
    7066.184      3309.38     77401.22 
    7067.941      3315.48     77540.32 
    7069.716      3321.45     77598.30 
    7071.507      3326.30     77732.16 
    7073.315      3324.03     77751.89 
    7075.142      3332.62     77916.49 
    7076.984      3338.09     78017.97 
    7078.844      3344.42     78091.30 
    7080.721      3338.62     78254.51 
    7082.616      3318.68     78360.58 
    7084.527      3305.60     78591.50 
    7086.456      3318.37     78970.28 
    7088.401      3319.00     79168.92 
    7090.364      3346.48     79425.41 
    7092.344      3392.81     79598.75 
    7094.341      3447.99     79738.94 
    7096.355      3511.01     79834.96 
    7098.387      3556.87     79999.84 
    7100.436      3588.57     80199.55 
    7102.501      3616.11     80494.10 
    7104.584      3616.49     80633.48 
    7106.684      3635.69     80852.70 
    7108.801      3632.73     81039.75 
    7110.935      3621.59     81228.63 
    7113.086      3591.28     81247.33 
    7115.255      3586.79     81698.84 
    7117.441      3527.12     80773.19 
    7119.644      3610.26     82809.35 
    7121.864      3610.23     82827.33 
    7124.101      3640.00     83000.11 
    7126.355      3680.58     83182.71 
    7128.626      3712.97     83331.12 
    7130.915      3753.17     83466.33 
    7133.220      3806.17     83801.34 
    7135.543      3855.97     84286.16 
    7137.883      3921.56     84780.77 
    7140.240      3956.95     85120.17 
    7142.614      3993.14     85637.38 
    7145.006      4030.11     86050.37 
    7147.415      4056.87     86400.15 
    7149.840      4082.42     86775.71 
    7152.283      4106.75     87145.05 
    7154.743      4138.86     87402.19 
    7157.220      4162.74     87804.09 
    7159.714      4185.41     88212.77 
    7162.226      4209.84     88645.23 
    7164.754      4221.05     89057.45 
    7167.299      4234.02     89487.45 
    7169.862      4251.76     89803.21 
    7172.442      4271.26     90360.73 
    7175.039      4306.52     90826.02 
    7177.653      4372.54     91258.06 
    7180.285      4422.32     91686.86 
    7182.933      4480.85     92229.41 
    7185.599      4537.13     92704.72 
    7188.282      4583.15     93267.77 
    7190.981      4619.93     93695.57 
    7193.699      4680.44     94225.11 
    7196.433      4720.70     94738.40 
    7199.184      4771.70     95225.41 
    7201.953      4825.43     95858.18 
    7204.738      4893.89     96339.67 
    7207.541      4941.09     96915.89 
    7210.361      4976.01     97427.84 
    7213.198      5025.66     98093.52 
    7216.052      5066.03     98679.93 
    7218.923      5088.12     99266.05 
    7221.812      5130.94     99877.89 
    7224.717      5166.47    100370.50 
    7227.640      5220.71    101057.70 
    7230.580      5286.66    101773.70 
    7233.537      5357.32    102405.40 
    7236.511      5443.69    103026.80 
    7239.503      5532.76    103823.90 
    7242.511      5611.53    104582.70 
    7245.537      5667.00    105241.20 
    7248.580      5744.17    106329.40 
    7251.640      5794.03    107029.30 
    7254.716      5860.58    107688.90 
    7257.811      5900.83    108367.20 
    7260.922      5966.75    109120.20 
    7264.050      6017.36    109613.80 
    7267.196      5977.66    108554.10 
    7270.358      6293.63    113709.20 
    7273.539      6314.28    113653.90 
    7276.735      6343.60    113833.20 
    7279.950      6406.60    114331.30 
    7283.181      6484.26    114938.00 
    7286.429      6556.59    115768.30 
    7289.695      6634.58    116535.40 
    7292.978      6740.24    117532.10 
    7296.277      6811.55    118441.40 
    7299.595      6895.52    119308.50 
    7302.929      6983.15    119791.10 
    7306.280      7137.43    121656.40 
    7309.648      7249.35    122597.40 
    7313.034      7372.93    123816.00 
    7316.437      7467.15    124768.30 
    7319.856      7567.01    125716.20 
    7323.293      7643.51    126850.80 
    7326.748      7737.64    127791.00 
    7330.219      7821.41    128681.80 
    7333.708      7939.82    129946.20 
    7337.213      8031.85    131115.30 
    7340.735      8114.51    132120.00 
    7344.275      8213.79    133153.40 
    7347.833      8314.70    134311.30 
    7351.407      8433.23    135390.90 
    7354.998      8588.37    136524.10 
    7358.606      8714.13    137699.00 
    7362.232      8845.50    138912.40 
    7365.875      8972.48    140023.40 
    7369.534      9121.07    141413.10 
    7373.211      9240.26    142595.30 
    7376.905      9372.06    143825.20 
    7380.617      9542.45    145159.60 
    7384.345      9678.44    146491.70 
    7388.090      9822.03    147665.30 
    7391.853      9951.21    148901.60 
    7395.633     10067.98    150179.40 
    7399.430     10208.34    151483.80 
    7403.244     10315.28    152898.90 
    7407.075     10466.81    154284.50 
    7410.924     10620.91    155440.60 
    7414.789     10647.59    154951.40 
    7418.672     11041.85    159887.70 
    7422.572     11075.68    159053.60 
    7426.489     11397.09    162764.10 
    7430.423     11546.06    163725.10 
    7434.374     11703.59    164793.70 
    7438.342     11882.69    166224.90 
    7442.328     12053.35    167698.60 
    7446.331     12229.56    169277.90 
    7450.350     12433.33    170663.80 
    7454.387     12627.66    172209.20 
    7458.441     12827.54    174014.10 
    7462.513     13035.96    175559.70 
    7466.601     13252.93    177233.70 
    7470.707     13472.44    179013.30 
    7474.829     13659.49    180611.40 
    7478.969     13848.08    182369.10 
    7483.126     14061.21    184129.30 
    7487.300     14273.87    186010.10 
    7491.491     14506.06    187717.30 
    7495.699     14710.78    189569.10 
    7499.925     14924.03    191079.50 
    7504.167     14900.79    189726.30 
    7508.427     15587.08    197515.70 
    7512.704     15677.89    197844.60 
    7516.998     15699.21    198818.00 
    7521.310     15964.05    200433.00 
    7525.638     16322.40    202087.40 
