#XDI/1.1  GSE/1.0
# Column.1: energy eV
# Column.2: itrans
# Column.3: i0
# Scan.end_time: 2009-07-06 11:41:47
# Scan.start_time: 2009-07-06 11:23:39
# Element.symbol:  Eu
# Element.edge:  L3
# Mono.d_spacing:  3.13555
# Mono.name: Si 111
# Sample.temperature: room temperature
# Sample.formula: EuSe
# Sample.name: EuSe
# Sample.prep: powder on tape, many layers
# Facility.Name:  APS
# Beamline.Name:  13-BM-D
# Beamline.xray_source:  bending magnet
# Beamline.Storage_Ring_Current: 101.936
# Beamline.I0: 5 nA/V
# Beamline.I1: 1 nA/V
# ScanParameters.E0: 6977.00
# ScanParameters.Legend: Start       Stop       Step       Npts       Time   Kspace?
# ScanParameters.Region1: -150.00    -15.000     5.0000     28.000     1.5000   0
# ScanParameters.Region2: -15.000     25.000    0.25000     161.00     1.5000   0
# ScanParameters.Region3: 2.5616     12.000   0.047429     200.00     1.5000   1
#-------------------------
#  energy  itrans  i0
    6827.000     18890.90     78503.65
    6832.000     18242.90     75355.65
    6837.000     18706.90     76784.65
    6842.000     18643.90     76056.65
    6847.000     18636.90     75470.65
    6852.000     18633.90     75056.65
    6857.000     18702.90     74816.65
    6862.000     18767.90     74646.65
    6867.000     18910.90     74611.65
    6872.000     18996.90     74528.65
    6877.000     19108.90     74482.65
    6882.000     19226.90     74482.65
    6887.000     19329.90     74342.65
    6892.000     19422.90     74354.65
    6897.000     19518.90     74238.65
    6902.000     19672.90     74329.65
    6907.000     19774.90     74307.65
    6912.000     19907.90     74344.65
    6917.000     20025.90     74366.65
    6922.000     20119.90     74360.65
    6927.000     20241.90     74320.65
    6932.000     20337.90     74248.65
    6937.000     20363.90     74207.65
    6942.000     20464.90     74401.65
    6947.000     20416.90     74237.65
    6952.000     20396.90     74440.65
    6957.000     20074.90     74395.65
    6962.000     19227.90     74396.65
    6962.250     19249.90     74812.65
    6962.500     19256.90     75192.65
    6962.750     19233.90     75370.65
    6963.000     19180.90     75555.65
    6963.250     19163.90     75920.65
    6963.500     19073.90     75993.65
    6963.750     19010.90     76098.65
    6964.000     18907.90     76127.65
    6964.250     18791.90     76157.65
    6964.500     18641.90     76116.65
    6964.750     18532.90     76191.65
    6965.000     18355.90     76182.65
    6965.250     18161.90     76090.65
    6965.500     18003.90     76165.65
    6965.750     17802.90     76211.65
    6966.000     17563.90     76118.65
    6966.250     17332.90     76092.65
    6966.500     17100.90     76154.65
    6966.750     16800.90     76118.65
    6967.000     16505.90     76114.65
    6967.250     16175.90     76094.65
    6967.500     15805.90     76111.65
    6967.750     15448.90     76069.65
    6968.000     15049.90     76140.65
    6968.250     14607.90     76147.65
    6968.500     14085.90     76137.65
    6968.750     13552.90     76136.65
    6969.000     12987.90     76124.65
    6969.250     12394.90     76351.65
    6969.500     11665.90     76431.65
    6969.750     10889.90     76398.65
    6970.000     10086.90     76426.65
    6970.250      9231.90     76455.65
    6970.500      8390.90     76406.65
    6970.750      7551.90     76423.65
    6971.000      6708.90     76368.65
    6971.250      5780.90     76329.65
    6971.500      5065.90     76254.65
    6971.750      4465.90     76251.65
    6972.000      3964.90     76314.65
    6972.250      3540.90     76227.65
    6972.500      3151.90     76187.65
    6972.750      2794.90     76229.65
    6973.000      2546.90     76196.65
    6973.250      2337.90     76179.65
    6973.500      2189.90     76240.65
    6973.750      2074.90     76187.65
    6974.000      2009.90     76146.65
    6974.250      1999.90     76251.65
    6974.500      2039.90     76150.65
    6974.750      2108.90     76092.65
    6975.000      2229.90     76135.65
    6975.250      2375.90     76002.65
    6975.500      2559.90     75888.65
    6975.750      2760.90     75645.65
    6976.000      2962.90     75558.65
    6976.250      3184.90     75654.65
    6976.500      3470.90     75969.65
    6976.750      3740.90     76383.65
    6977.000      3993.90     76580.65
    6977.250      4225.90     76533.65
    6977.500      4425.90     76508.65
    6977.750      4604.90     76361.65
    6978.000      4762.90     76226.65
    6978.250      4904.90     76208.65
    6978.500      5001.90     76183.65
    6978.750      5060.90     76187.65
    6979.000      5100.90     76160.65
    6979.250      5132.90     76157.65
    6979.500      5133.90     76138.65
    6979.750      5124.90     76131.65
    6980.000      5118.90     76083.65
    6980.250      5106.90     76072.65
    6980.500      5110.90     76056.65
    6980.750      5103.90     76030.65
    6981.000      5122.90     76066.65
    6981.250      5147.90     76297.65
    6981.500      5161.90     76376.65
    6981.750      5172.90     76306.65
    6982.000      5207.90     76235.65
    6982.250      5225.90     76198.65
    6982.500      5275.90     76284.65
    6982.750      5323.90     76265.65
    6983.000      5365.90     76161.65
    6983.250      5432.90     76230.65
    6983.500      5509.90     76263.65
    6983.750      5583.90     76197.65
    6984.000      5670.90     76092.65
    6984.250      5736.90     76210.65
    6984.500      5810.90     76183.65
    6984.750      5897.90     76163.65
    6985.000      5977.90     76168.65
    6985.250      6054.90     76220.65
    6985.500      6100.90     76171.65
    6985.750      6139.90     76111.65
    6986.000      6183.90     76171.65
    6986.250      6208.90     76236.65
    6986.500      6212.90     76154.65
    6986.750      6220.90     76075.65
    6987.000      6230.90     76155.65
    6987.250      6239.90     76249.65
    6987.500      6247.90     76261.65
    6987.750      6259.90     76344.65
    6988.000      6277.90     76390.65
    6988.250      6295.90     76338.65
    6988.500      6313.90     76305.65
    6988.750      6350.90     76291.65
    6989.000      6397.90     76300.65
    6989.250      6463.90     76351.65
    6989.500      6505.90     76353.65
    6989.750      6558.90     76342.65
    6990.000      6625.90     76305.65
    6990.250      6677.90     76242.65
    6990.500      6729.90     76168.65
    6990.750      6775.90     76255.65
    6991.000      6823.90     76241.65
    6991.250      6848.90     76190.65
    6991.500      6882.90     76119.65
    6991.750      6899.90     76217.65
    6992.000      6928.90     76139.65
    6992.250      6932.90     76108.65
    6992.500      6939.90     76152.65
    6992.750      6963.90     76138.65
    6993.000      6954.90     76067.65
    6993.250      6963.90     76152.65
    6993.500      6961.90     76078.65
    6993.750      6956.90     76070.65
    6994.000      6946.90     76121.65
    6994.250      6939.90     76063.65
    6994.500      6930.90     76088.65
    6994.750      6911.90     76172.65
    6995.000      6896.90     76037.65
    6995.250      6872.90     76050.65
    6995.500      6862.90     76124.65
    6995.750      6832.90     76108.65
    6996.000      6797.90     76060.65
    6996.250      6781.90     76049.65
    6996.500      6762.90     76132.65
    6996.750      6749.90     76121.65
    6997.000      6720.90     76083.65
    6997.250      6694.90     76030.65
    6997.500      6690.90     76071.65
    6997.750      6669.90     76137.65
    6998.000      6647.90     76061.65
    6998.250      6641.90     76095.65
    6998.500      6631.90     76089.65
    6998.750      6623.90     76084.65
    6999.000      6616.90     76023.65
    6999.250      6625.90     76257.65
    6999.500      6612.90     76210.65
    6999.750      6622.90     76260.65
    7000.000      6614.90     76240.65
    7000.250      6624.90     76236.65
    7000.500      6621.90     76076.65
    7000.750      6627.90     76097.65
    7001.000      6653.90     76159.65
    7001.250      6654.90     76092.65
    7001.500      6668.90     76035.65
    7001.750      6694.90     76118.65
    7002.000      6700.90     76061.65
    7002.935      6784.90     75971.65
    7003.886      6874.90     75938.65
    7004.854      6941.89     75911.64
    7005.840      7013.87     75834.63
    7006.843      7064.85     75830.60
    7007.863      7107.81     75810.56
    7008.900      7134.76     75801.51
    7009.955      7144.69     75801.44
    7011.026      7094.60     75743.35
    7012.115      7061.49     75772.24
    7013.221      7008.35     75697.10
    7014.344      6966.19     75683.94
    7015.483      6981.00     76001.75
    7016.641      7005.77     76098.52
    7017.815      7021.51     76048.27
    7019.006      7052.21     76030.97
    7020.215      7061.88     75975.63
    7021.441      7033.50     75982.26
    7022.684      7002.08     75979.84
    7023.944      7005.61     76115.37
    7025.221      7015.09     76094.84
    7026.515      7058.52     76046.27
    7027.827      7126.89     76116.65
    7029.155      7193.21     76128.97
    7030.501      7266.47     76167.23
    7031.864      7289.67     76054.43
    7033.244      7317.80     76039.56
    7034.641      7352.86     76247.63
    7036.056      7337.86     76221.63
    7037.487      7342.79     76231.56
    7038.936      7352.64     76351.41
    7040.401      7335.41     76427.19
    7041.884      7323.11     76483.89
    7043.384      7309.72     76476.51
    7044.901      7291.25     76582.04
    7046.436      7302.70     76638.48
    7047.987      7317.05     76844.84
    7049.556      7341.32     76901.11
    7051.142      7390.48     77053.28
    7052.744      7433.56     77081.36
    7054.364      7481.53     77043.34
    7056.001      7545.41     77067.22
    7057.656      7596.18     77150.99
    7059.327      7598.84     77094.66
    7061.016      7602.40     77291.22
    7062.722      7598.84     77374.66
    7064.444      7615.17     77519.00
    7066.184      7619.38     77541.22
    7067.941      7638.48     77683.32
    7069.716      7643.45     77743.30
    7071.507      7671.30     77865.16
    7073.315      7698.03     77946.89
    7075.142      7752.62     78136.49
    7076.984      7806.09     78280.97
    7078.844      7859.42     78387.30
    7080.721      7918.62     78465.51
    7082.616      7972.68     78561.58
    7084.527      8043.60     78666.50
    7086.456      8120.37     78980.28
    7088.401      8135.00     79043.92
    7090.364      8149.48     79379.41
    7092.344      8155.81     79601.75
    7094.341      8163.98     79785.94
    7096.355      8187.01     79867.96
    7098.387      8206.87     79991.84
    7100.436      8214.57     80114.55
    7102.501      8216.11     80382.10
    7104.584      8215.49     80503.48
    7106.684      8221.69     80720.70
    7108.801      8244.73     80889.75
    7110.935      8304.59     81019.63
    7113.086      8377.28     81159.33
    7115.255      8474.79     81412.84
    7117.441      8464.12     80578.19
    7119.644      8743.26     82591.35
    7121.863      8788.23     82631.33
    7124.101      8853.00     82826.11
    7126.355      8904.58     82984.71
    7128.626      8968.98     83132.12
    7130.915      9018.17     83219.33
    7133.220      9092.17     83704.34
    7135.543      9147.97     84017.16
    7137.883      9185.56     84405.77
    7140.240      9197.95     84815.17
    7142.614      9218.14     85347.38
    7145.006      9239.11     85746.37
    7147.415      9255.87     86100.15
    7149.840      9306.42     86420.71
    7152.283      9382.75     86788.05
    7154.743      9483.86     87152.19
    7157.220      9582.75     87596.09
    7159.714      9630.41     87939.77
    7162.225      9704.84     88311.23
    7164.754      9786.05     88708.45
    7167.299      9895.02     89169.45
    7169.862      9995.76     89392.21
    7172.442     10110.26     90037.73
    7175.039     10216.52     90481.02
    7177.653     10296.54     90803.06
    7180.285     10400.32     91249.86
    7182.933     10512.85     91810.41
    7185.599     10602.13     92305.72
    7188.282     10706.16     92851.77
    7190.981     10774.93     93257.57
    7193.699     10882.44     93790.11
    7196.433     10979.70     94300.40
    7199.184     11093.70     94714.41
    7201.953     11203.43     95237.18
    7204.738     11350.89     96286.67
    7207.541     11452.09     96798.89
    7210.361     11539.01     97427.84
    7213.198     11611.66     98034.52
    7216.052     11689.03     98626.93
    7218.923     11749.13     99184.05
    7221.812     11817.94     99788.89
    7224.717     11925.47    100393.50
    7227.640     12047.71    101038.70
    7230.580     12192.66    101750.70
    7233.537     12339.32    102405.40
    7236.511     12522.69    103114.80
    7239.503     12663.76    103736.90
    7242.511     12847.53    104653.70
    7245.537     13001.00    105242.20
    7248.580     13149.17    105965.40
    7251.639     13329.03    106697.30
    7254.716     13489.58    107328.90
    7257.811     13624.83    107958.20
    7260.922     13779.75    108666.20
    7264.050     13887.37    109133.80
    7267.196     14062.66    110110.10
    7270.358     14448.63    112737.20
    7273.539     14517.28    113064.90
    7276.735     14616.60    113496.20
    7279.950     14764.59    114270.30
    7283.181     14887.26    114906.00
    7286.429     15042.59    115708.30
    7289.695     15194.58    116574.40
    7292.978     15388.24    117514.10
    7296.277     15570.55    118422.40
    7299.595     15746.52    119286.50
    7302.929     15816.15    119105.10
    7306.280     16205.43    121644.40
    7309.648     16404.35    122488.40
    7313.034     16542.93    123321.00
    7316.437     16754.15    124256.30
    7319.856     16972.01    125233.20
    7323.293     17207.51    126413.80
    7326.748     17421.64    127212.00
    7330.219     17678.41    128483.80
    7333.708     17925.82    129461.20
    7337.213     18200.85    130720.30
    7340.735     18469.51    131830.00
    7344.275     18694.79    132828.40
    7347.833     18950.70    133863.30
    7351.406     19183.23    134973.90
    7354.998     19396.37    136005.10
    7358.606     19639.13    137177.00
    7362.231     19878.50    138306.40
    7365.875     20105.48    139512.40
    7369.534     20378.07    140755.10
    7373.211     20657.26    142024.30
    7376.905     20918.05    143083.20
    7380.617     21186.45    144484.60
    7384.345     21458.44    145570.70
    7388.090     21748.03    146909.30
    7391.853     22117.21    148798.60
    7395.633     22433.98    150134.40
    7399.430     22709.34    151404.80
    7403.244     23074.28    152911.90
    7407.075     23472.80    154391.50
    7410.924     23753.91    155448.60
    7414.789     23974.60    155961.40
    7418.672     24579.85    159036.70
    7422.572     24814.68    159629.60
    7426.489     25312.09    162041.10
    7430.423     25644.05    163088.10
    7434.374     25923.59    164289.70
    7438.342     26297.69    165741.90
    7442.328     26639.35    167167.60
    7446.331     26998.56    168765.90
    7450.350     27448.33    170717.80
    7454.387     27833.66    172243.20
    7458.441     28294.54    174133.10
    7462.512     28623.96    175437.70
    7466.601     29059.93    177136.70
    7470.706     29495.44    178636.30
    7474.829     29960.49    180494.40
    7478.969     30417.08    182272.10
    7483.125     30867.21    183817.30
    7487.300     31256.87    185425.10
    7491.491     31722.06    187102.30
    7495.699     32208.78    188967.10
    7499.925     32644.03    190454.50
    7504.167     32679.79    189758.30
    7508.427     33927.08    195909.70
    7512.704     34323.89    197051.60
    7516.998     34685.21    198284.00
    7521.309     35239.05    199978.00
    7525.638     35767.40    201742.40
