#XDI/1.1  GSE/1.0
# Column.1: energy eV
# Column.2: itrans
# Column.3: i0
# Scan.end_time: 2009-07-06 11:23:38
# Scan.start_time: 2009-07-06 11:05:39
# Element.symbol:  Eu
# Element.edge:  L3
# Facility.Name:  APS
# Beamline.Name:  13-BM-D
# Beamline.xray_source:  bending magnet
# Mono.dspacing:  3.13555
# Mono.name: Si 111
# Beamline.Storage_Ring_Current: 102.241 || S:SRcurrentAI.VAL
# Beamline.FOE_Mono_angle_readback: 16.8344 || 13BMA:m17.RBV
# Beamline.Mono_Energy_drive_val: 6827.0000 || 13BMA:E:Energy.VAL
# Beamline.Mono_Energy_readback: 6822.0052 || 13BMA:E:E_RBV
# Beamline.Mono_Beam_Offset: 20.0000 || 13BMA:E:height.VAL
# Beamline.I0_sensitivity_value: 5 || 13BMD:A3sens_num.VAL
# Beamline.I0_sensitivity_value: nA/V || 13BMD:A3sens_unit.VAL
# Beamline.I1_sensitivity_value: 1 || 13BMD:A2sens_num.VAL
# Beamline.I1_sensitivity_value: nA/V || 13BMD:A2sens_unit.VAL
# Beamline.FOE_Mono_Yout: 10.7020 || 13BMA:m10.VAL
# Beamline.FOE_Mono_Yin: 10.9132 || 13BMA:m11.VAL
# Beamline.FOE_Mono_Yup: 9.9945 || 13BMA:m12.VAL
# Beamline.FOE_Mono_Cage_Y: -0.505 || 13BMA:m13.VAL
# Beamline.FOE_Mono_Z: 36.417 || 13BMA:m14.VAL
# Beamline.FOE_Mono_angle: 16.8340 || 13BMA:m17.VAL
# Beamline.BMD_Horiz_Width: 3.000 || 13BMD:BMDHt2.C
# Beamline.BMD_Horiz_Center: 3.000 || 13BMD:BMDHt2.D
# Beamline.BMD_Vertical_Width: 1.800 || 13BMD:BMDVt2.C
# Beamline.BMD_Vertical_Center: -14.000 || 13BMD:BMDVt2.D
# Beamline.Sample_X: 19.0008 || 13BMD:m82.VAL
# Beamline.Sample_Y__height: 79.9994 || 13BMD:m81.VAL
# Beamline.Sample_Z__focus: 78.855 || 13BMD:m39.VAL
# Beamline._13GE2_med_dxp1_PKTM: 2.00 us || 
# ScanParameters.Start: Scan.Member: Value
# ScanParameters.E0: 6977.00
# ScanParameters.Legend: Start       Stop       Step       Npts       Time   Kspace?
# ScanParameters.Region1: -150.00    -15.000     5.0000     28.000     1.5000   0
# ScanParameters.Region2: -15.000     25.000    0.25000     161.00     1.5000   0
# ScanParameters.Region3: 2.5616     12.000   0.047429     200.00     1.5000   1
# ScanParameters.End: here
#-------------------------
#  energy  itrans  i0
    6827.000     18929.90     78689.65 
    6832.000     18286.90     75582.65 
    6837.000     18729.90     77030.65 
    6842.000     18702.90     76321.65 
    6847.000     18671.90     75688.65 
    6852.000     18675.90     75258.65 
    6857.000     18760.90     75068.65 
    6862.000     18843.90     74865.65 
    6867.000     18925.90     74706.65 
    6872.000     19021.90     74582.65 
    6877.000     19110.90     74480.65 
    6882.000     19200.90     74419.65 
    6887.000     19323.90     74411.65 
    6892.000     19435.90     74386.65 
    6897.000     19538.90     74342.65 
    6902.000     19653.90     74267.65 
    6907.000     19803.90     74432.65 
    6912.000     19904.90     74355.65 
    6917.000     20052.90     74536.65 
    6922.000     20155.90     74412.65 
    6927.000     20273.90     74533.65 
    6932.000     20348.90     74377.65 
    6937.000     20414.90     74394.65 
    6942.000     20459.90     74443.65 
    6947.000     20458.90     74453.65 
    6952.000     20417.90     74510.65 
    6957.000     20091.90     74532.65 
    6962.000     19228.90     74390.65 
    6962.250     19278.90     74908.65 
    6962.500     19269.90     75196.65 
    6962.750     19227.90     75400.65 
    6963.000     19167.90     75550.65 
    6963.250     19083.90     75674.65 
    6963.500     19006.90     75760.65 
    6963.750     18907.90     75807.65 
    6964.000     18872.90     76013.65 
    6964.250     18762.90     76098.65 
    6964.500     18620.90     76090.65 
    6964.750     18495.90     76094.65 
    6965.000     18343.90     76140.65 
    6965.250     18143.90     76099.65 
    6965.500     17989.90     76136.65 
    6965.750     17799.90     76172.65 
    6966.000     17555.90     76096.65 
    6966.250     17332.90     76084.65 
    6966.500     17065.90     76145.65 
    6966.750     16763.90     76018.65 
    6967.000     16494.90     76086.65 
    6967.250     16156.90     76043.65 
    6967.500     15793.90     76081.65 
    6967.750     15434.90     76087.65 
    6968.000     15006.90     76051.65 
    6968.250     14552.90     76039.65 
    6968.500     14083.90     76117.65 
    6968.750     13526.90     76007.65 
    6969.000     12912.90     75962.65 
    6969.250     12315.90     76102.65 
    6969.500     11590.90     76110.65 
    6969.750     10827.90     76126.65 
    6970.000     10036.90     76230.65 
    6970.250      9173.90     76254.65 
    6970.500      8327.90     76290.65 
    6970.750      7496.90     76255.65 
    6971.000      6649.90     76229.65 
    6971.250      5752.90     76218.65 
    6971.500      5042.90     76233.65 
    6971.750      4438.90     76198.65 
    6972.000      3935.90     76142.65 
    6972.250      3515.90     76149.65 
    6972.500      3136.90     76148.65 
    6972.750      2779.90     76100.65 
    6973.000      2521.90     76050.65 
    6973.250      2327.90     76113.65 
    6973.500      2167.90     76048.65 
    6973.750      2067.90     76134.65 
    6974.000      2007.90     76136.65 
    6974.250      1990.90     76011.65 
    6974.500      2027.90     76070.65 
    6974.750      2105.90     75977.65 
    6975.000      2221.90     75953.65 
    6975.250      2370.90     75859.65 
    6975.500      2559.90     75716.65 
    6975.750      2752.90     75519.65 
    6976.000      2975.90     75702.65 
    6976.250      3193.90     75734.65 
    6976.500      3481.90     76127.65 
    6976.750      3755.90     76567.65 
    6977.000      4006.90     76789.65 
    6977.250      4234.90     76687.65 
    6977.500      4434.90     76630.65 
    6977.750      4612.90     76481.65 
    6978.000      4779.90     76388.65 
    6978.250      4923.90     76390.65 
    6978.500      5017.90     76360.65 
    6978.750      5072.90     76317.65 
    6979.000      5117.90     76298.65 
    6979.250      5126.90     76265.65 
    6979.500      5133.90     76248.65 
    6979.750      5125.90     76194.65 
    6980.000      5126.90     76291.65 
    6980.250      5132.90     76333.65 
    6980.500      5119.90     76319.65 
    6980.750      5115.90     76277.65 
    6981.000      5125.90     76250.65 
    6981.250      5134.90     76214.65 
    6981.500      5146.90     76154.65 
    6981.750      5172.90     76228.65 
    6982.000      5195.90     76239.65 
    6982.250      5222.90     76148.65 
    6982.500      5259.90     76106.65 
    6982.750      5306.90     76157.65 
    6983.000      5354.90     76105.65 
    6983.250      5415.90     76079.65 
    6983.500      5487.90     76148.65 
    6983.750      5572.90     76119.65 
    6984.000      5652.90     76041.65 
    6984.250      5730.90     76095.65 
    6984.500      5803.90     76074.65 
    6984.750      5892.90     75999.65 
    6985.000      5982.90     76090.65 
    6985.250      6037.90     75984.65 
    6985.500      6091.90     76068.65 
    6985.750      6123.90     75975.65 
    6986.000      6156.90     76001.65 
    6986.250      6194.90     76051.65 
    6986.500      6193.90     75939.65 
    6986.750      6218.90     76046.65 
    6987.000      6212.90     76032.65 
    6987.250      6211.90     75977.65 
    6987.500      6231.90     76056.65 
    6987.750      6231.90     76004.65 
    6988.000      6267.90     76297.65 
    6988.250      6289.90     76252.65 
    6988.500      6320.90     76296.65 
    6988.750      6354.90     76297.65 
    6989.000      6388.90     76241.65 
    6989.250      6440.90     76202.65 
    6989.500      6499.90     76305.65 
    6989.750      6542.90     76245.65 
    6990.000      6611.90     76268.65 
    6990.250      6660.90     76169.65 
    6990.500      6724.90     76271.65 
    6990.750      6775.90     76262.65 
    6991.000      6805.90     76187.65 
    6991.250      6836.90     76147.65 
    6991.500      6875.90     76229.65 
    6991.750      6898.90     76166.65 
    6992.000      6915.90     76071.65 
    6992.250      6938.90     76147.65 
    6992.500      6938.90     76130.65 
    6992.750      6936.90     76027.65 
    6993.000      6952.90     76073.65 
    6993.250      6943.90     76014.65 
    6993.500      6934.90     76015.65 
    6993.750      6940.90     76097.65 
    6994.000      6942.90     76213.65 
    6994.250      6943.90     76260.65 
    6994.500      6928.90     76286.65 
    6994.750      6909.90     76203.65 
    6995.000      6895.90     76268.65 
    6995.250      6881.90     76292.65 
    6995.500      6861.90     76257.65 
    6995.750      6841.90     76227.65 
    6996.000      6814.90     76221.65 
    6996.250      6790.90     76290.65 
    6996.500      6769.90     76251.65 
    6996.750      6751.90     76209.65 
    6997.000      6717.90     76157.65 
    6997.250      6699.90     76176.65 
    6997.500      6683.90     76199.65 
    6997.750      6662.90     76192.65 
    6998.000      6635.90     76088.65 
    6998.250      6640.90     76157.65 
    6998.500      6627.90     76137.65 
    6998.750      6617.90     76057.65 
    6999.000      6612.90     76148.65 
    6999.250      6598.90     76107.65 
    6999.500      6593.90     76042.65 
    6999.750      6594.90     76128.65 
    7000.000      6595.90     76075.65 
    7000.250      6608.90     76025.65 
    7000.500      6621.90     76115.65 
    7000.750      6636.90     76069.65 
    7001.000      6633.90     76014.65 
    7001.250      6655.90     76129.65 
    7001.500      6664.90     76121.65 
    7001.750      6684.90     76095.65 
    7002.000      6701.90     76064.65 
    7002.935      6794.90     76133.65 
    7003.886      6867.90     76060.65 
    7004.854      6945.89     75950.64 
    7005.840      7008.87     75904.63 
    7006.843      7046.85     75853.60 
    7007.863      7098.81     75755.56 
    7008.900      7122.76     75822.51 
    7009.955      7123.69     75803.44 
    7011.026      7103.60     75734.35 
    7012.115      7042.49     75706.24 
    7013.221      6994.35     75721.10 
    7014.344      6949.19     75656.94 
    7015.483      6950.00     75693.75 
    7016.641      6965.77     75757.52 
    7017.815      6987.51     75672.27 
    7019.006      7026.21     75714.97 
    7020.215      7061.88     76046.63 
    7021.441      7021.50     75909.26 
    7022.684      7003.08     75904.84 
    7023.944      6981.61     75983.37 
    7025.221      6994.09     75996.84 
    7026.515      7039.52     75970.27 
    7027.827      7106.89     76040.65 
    7029.155      7189.21     76136.97 
    7030.501      7253.47     76105.23 
    7031.864      7295.67     76010.43 
    7033.244      7310.80     75975.56 
    7034.641      7335.86     76221.63 
    7036.056      7350.86     76154.63 
    7037.487      7348.79     76184.56 
    7038.936      7343.64     76231.41 
    7040.401      7324.41     76206.19 
    7041.884      7308.11     76335.89 
    7043.384      7287.72     76387.51 
    7044.901      7278.25     76398.04 
    7046.436      7284.70     76523.48 
    7047.987      7293.05     76567.84 
    7049.556      7329.32     76644.11 
    7051.142      7353.48     76675.28 
    7052.744      7406.56     76759.36 
    7054.364      7464.53     76861.34 
    7056.001      7533.41     76961.22 
    7057.656      7572.18     77037.99 
    7059.327      7592.84     77061.66 
    7061.016      7593.40     77243.22 
    7062.722      7595.84     77310.66 
    7064.444      7594.17     77383.00 
    7066.184      7621.38     77454.22 
    7067.941      7628.48     77607.32 
    7069.716      7643.45     77755.30 
    7071.507      7660.30     77838.16 
    7073.315      7691.03     77953.89 
    7075.142      7752.62     78149.49 
    7076.984      7804.09     78226.97 
    7078.844      7850.42     78289.30 
    7080.721      7908.62     78403.51 
    7082.616      7959.68     78492.58 
    7084.527      8030.60     78640.50 
    7086.456      8089.37     78819.28 
    7088.401      8118.00     79002.92 
    7090.364      8123.48     79221.41 
    7092.344      8125.81     79415.75 
    7094.341      8137.98     79605.94 
    7096.355      8163.01     79777.96 
    7098.387      8196.87     80031.84 
    7100.436      8238.57     80438.55 
    7102.501      8224.11     80547.10 
    7104.584      8231.49     80745.48 
    7106.684      8241.69     80927.70 
    7108.801      8268.73     81080.75 
    7110.935      8302.59     81183.63 
    7113.086      8380.28     81341.33 
    7115.255      8487.79     81643.84 
    7117.441      8485.12     80792.19 
    7119.644      8757.26     82823.35 
    7121.863      8805.23     82896.33 
    7124.101      8880.00     83039.11 
    7126.355      8930.58     83226.71 
    7128.626      8984.98     83326.12 
    7130.915      9020.17     83443.33 
    7133.220      9100.17     83814.34 
    7135.543      9154.97     84210.16 
    7137.883      9199.56     84585.77 
    7140.240      9227.95     85046.17 
    7142.614      9238.14     85389.38 
    7145.006      9217.11     85767.37 
    7147.415      9253.87     86093.15 
    7149.840      9314.42     86453.71 
    7152.283      9402.75     86814.05 
    7154.743      9473.86     87113.19 
    7157.220      9546.75     87498.09 
    7159.714      9611.41     87855.77 
    7162.225      9694.84     88251.23 
    7164.754      9787.05     88726.45 
    7167.299      9888.02     89091.45 
    7169.862      9970.76     89401.21 
    7172.442     10082.26     89898.73 
    7175.039     10211.52     90517.02 
    7177.653     10307.54     90815.06 
    7180.285     10403.32     91266.86 
    7182.933     10506.85     91829.41 
    7185.599     10603.13     92468.72 
    7188.282     10695.16     92879.77 
    7190.981     10768.93     93336.57 
    7193.699     10867.44     93825.11 
    7196.433     10986.70     94415.40 
    7199.184     11098.70     94858.41 
    7201.953     11218.43     95378.18 
    7204.738     11312.89     96001.67 
    7207.541     11408.09     96546.89 
    7210.361     11482.01     97059.84 
    7213.198     11573.66     97735.52 
    7216.052     11687.03     98714.93 
    7218.923     11754.13     99309.05 
    7221.812     11820.94     99776.89 
    7224.717     11931.47    100498.50 
    7227.640     12035.71    101003.70 
    7230.580     12182.66    101689.70 
    7233.537     12340.32    102343.40 
    7236.511     12502.69    103055.80 
    7239.503     12673.76    103791.90 
    7242.511     12849.53    104539.70 
    7245.537     12984.00    105196.20 
    7248.580     13107.17    105878.40 
    7251.639     13290.03    106688.30 
    7254.716     13465.58    107303.90 
    7257.811     13623.83    108027.20 
    7260.922     13756.75    108673.20 
    7264.050     13878.37    109105.80 
    7267.196     14004.66    109796.10 
    7270.358     14389.63    112573.20 
    7273.539     14453.28    112810.90 
    7276.735     14595.60    113572.20 
    7279.950     14730.59    114275.30 
    7283.181     14836.26    114960.00 
    7286.429     15007.59    115806.30 
    7289.695     15168.58    116651.40 
    7292.978     15352.24    117561.10 
    7296.277     15534.55    118394.40 
    7299.595     15716.52    119270.50 
    7302.929     15764.15    119122.10 
    7306.280     16196.43    121755.40 
    7309.648     16372.35    122664.40 
    7313.034     16551.93    123426.00 
    7316.437     16737.15    124362.30 
    7319.856     16947.01    125355.20 
    7323.293     17184.51    126366.80 
    7326.748     17388.64    127121.00 
    7330.219     17650.41    128384.80 
    7333.708     17891.82    129361.20 
    7337.213     18167.85    130585.30 
    7340.735     18411.51    131531.00 
    7344.275     18639.79    132559.40 
    7347.833     18922.70    133841.30 
    7351.406     19117.23    134817.90 
    7354.998     19396.37    136114.10 
    7358.606     19594.13    137158.00 
    7362.231     19839.50    138283.40 
    7365.875     20069.48    139489.40 
    7369.534     20369.07    140786.10 
    7373.211     20651.26    142211.30 
    7376.905     20915.05    143286.20 
    7380.617     21150.45    144490.60 
    7384.345     21470.44    145756.70 
    7388.090     21789.03    147071.30 
    7391.853     22069.21    148425.60 
    7395.633     22355.98    149664.40 
    7399.430     22743.34    151458.80 
    7403.244     23088.28    152831.90 
    7407.075     23423.80    154248.50 
    7410.924     23735.91    155417.60 
    7414.789     23957.60    155910.40 
    7418.672     24570.85    158939.70 
    7422.572     24779.68    159431.60 
    7426.489     25253.09    161822.10 
    7430.423     25571.05    162861.10 
    7434.374     25888.59    164126.70 
    7438.342     26251.69    165622.90 
    7442.328     26623.35    167177.60 
    7446.331     27006.56    168771.90 
    7450.350     27372.33    170282.80 
    7454.387     27750.66    171751.20 
    7458.441     28224.54    173792.10 
    7462.512     28628.96    175494.70 
    7466.601     29051.93    177072.70 
    7470.706     29499.44    178851.30 
    7474.829     29942.49    180411.40 
    7478.969     30378.08    182137.10 
    7483.125     30824.21    183706.30 
    7487.300     31260.87    185399.10 
    7491.491     31724.06    187082.30 
    7495.699     32213.78    189162.10 
    7499.925     32639.03    190565.50 
    7504.167     32659.79    189854.30 
    7508.427     33986.08    196307.70 
    7512.704     34289.89    196994.60 
    7516.998     34684.21    198107.00 
    7521.309     35211.05    199804.00 
    7525.638     35713.40    201693.40 
