#XDI/1.1  GSE/1.0
# Column.1: energy eV
# Column.2: itrans
# Column.3: i0
# Scan.end_time: 2009-07-06 12:18:11
# Scan.start_time: 2009-07-06 12:00:04
# Element.symbol:  Eu
# Element.edge:  L3
# Facility.Name:  APS
# Beamline.Name:  13-BM-D
# Beamline.xray_source:  bending magnet
# Mono.d_spacing:  3.13555
# Mono.name: Si 111
# Beamline.Storage_Ring_Current: 102.34 || S:SRcurrentAI.VAL
# Beamline.FOE_Mono_angle_readback: 16.8339 || 13BMA:m17.RBV
# Beamline.Mono_Energy_drive_val: 6827.0000 || 13BMA:E:Energy.VAL
# Beamline.Mono_Energy_readback: 6822.0052 || 13BMA:E:E_RBV
# Beamline.Mono_Beam_Offset: 20.0000 || 13BMA:E:height.VAL
# Beamline.I0_sensitivity_value: 5 || 13BMD:A3sens_num.VAL
# Beamline.I0_sensitivity_value: nA/V || 13BMD:A3sens_unit.VAL
# Beamline.I1_sensitivity_value: 1 || 13BMD:A2sens_num.VAL
# Beamline.I1_sensitivity_value: nA/V || 13BMD:A2sens_unit.VAL
# Beamline.FOE_Mono_Yout: 10.7020 || 13BMA:m10.VAL
# Beamline.FOE_Mono_Yin: 10.9132 || 13BMA:m11.VAL
# Beamline.FOE_Mono_Yup: 9.9945 || 13BMA:m12.VAL
# Beamline.FOE_Mono_Cage_Y: -0.505 || 13BMA:m13.VAL
# Beamline.FOE_Mono_Z: 36.417 || 13BMA:m14.VAL
# Beamline.FOE_Mono_angle: 16.8340 || 13BMA:m17.VAL
# Beamline.BMD_Horiz_Width: 3.000 || 13BMD:BMDHt2.C
# Beamline.BMD_Horiz_Center: 3.000 || 13BMD:BMDHt2.D
# Beamline.BMD_Vertical_Width: 1.800 || 13BMD:BMDVt2.C
# Beamline.BMD_Vertical_Center: -14.000 || 13BMD:BMDVt2.D
# Beamline.Sample_X: 21.6008 || 13BMD:m82.VAL
# Beamline.Sample_Y__height: 112.0002 || 13BMD:m81.VAL
# Beamline.Sample_Z__focus: 78.855 || 13BMD:m39.VAL
# Beamline._13GE2_med_dxp1_PKTM: 2.00 us || 
# ScanParameters.Start: Scan.Member: Value
# ScanParameters.E0: 6977.00
# ScanParameters.Legend: Start       Stop       Step       Npts       Time   Kspace?
# ScanParameters.Region1: -150.00    -15.000     5.0000     28.000     1.5000   0
# ScanParameters.Region2: -15.000     25.000    0.25000     161.00     1.5000   0
# ScanParameters.Region3: 2.5616     12.000   0.047429     200.00     1.5000   1
# ScanParameters.End: here
#-------------------------
#  energy  itrans  i0
    6827.000     41744.90     78857.65 
    6832.000     40426.90     75873.65 
    6837.000     41324.90     77108.65 
    6842.000     41169.90     76379.65 
    6847.000     41055.90     75764.65 
    6852.000     41042.90     75351.65 
    6857.000     41168.90     75228.65 
    6862.000     41250.90     74917.65 
    6867.000     41377.90     74847.65 
    6872.000     41540.90     74750.65 
    6877.000     41735.90     74674.65 
    6882.000     41876.90     74606.65 
    6887.000     42069.90     74586.65 
    6892.000     42242.90     74520.65 
    6897.000     42374.90     74428.65 
    6902.000     42611.90     74493.65 
    6907.000     42836.90     74573.65 
    6912.000     42968.90     74391.65 
    6917.000     43269.90     74548.65 
    6922.000     43371.90     74489.65 
    6927.000     43585.90     74539.65 
    6932.000     43664.90     74408.65 
    6937.000     43782.90     74352.65 
    6942.000     43901.90     74444.65 
    6947.000     43912.90     74468.65 
    6952.000     43848.90     74557.65 
    6957.000     43425.90     74523.65 
    6962.000     42084.90     74478.65 
    6962.250     42242.90     74964.65 
    6962.500     42306.90     75330.65 
    6962.750     42315.90     75572.65 
    6963.000     42277.90     75754.65 
    6963.250     42189.90     75902.65 
    6963.500     42041.90     75919.65 
    6963.750     41920.90     75976.65 
    6964.000     41777.90     76032.65 
    6964.250     41673.90     76151.65 
    6964.500     41449.90     76153.65 
    6964.750     41215.90     76107.65 
    6965.000     40950.90     76101.65 
    6965.250     40763.90     76193.65 
    6965.500     40481.90     76210.65 
    6965.750     40164.90     76163.65 
    6966.000     39834.90     76143.65 
    6966.250     39468.90     76131.65 
    6966.500     39070.90     76054.65 
    6966.750     38733.90     76127.65 
    6967.000     38358.90     76322.65 
    6967.250     37875.90     76315.65 
    6967.500     37307.90     76289.65 
    6967.750     36741.90     76210.65 
    6968.000     36084.90     76177.65 
    6968.250     35440.90     76219.65 
    6968.500     34712.90     76275.65 
    6968.750     33866.90     76232.65 
    6969.000     32915.90     76197.65 
    6969.250     31988.90     76175.65 
    6969.500     30767.90     76111.65 
    6969.750     29543.90     76201.65 
    6970.000     28213.90     76183.65 
    6970.250     26734.90     76146.65 
    6970.500     25174.90     76133.65 
    6970.750     23584.90     76170.65 
    6971.000     21850.90     76219.65 
    6971.250     19759.90     76197.65 
    6971.500     17940.90     76157.65 
    6971.750     16150.90     76180.65 
    6972.000     14436.90     76162.65 
    6972.250     12790.90     76130.65 
    6972.500     11110.90     76110.65 
    6972.750      9424.90     76215.65 
    6973.000      8108.90     76427.65 
    6973.250      6962.90     76429.65 
    6973.500      5972.90     76368.65 
    6973.750      5203.90     76358.65 
    6974.000      4626.90     76344.65 
    6974.250      4246.90     76314.65 
    6974.500      4059.90     76334.65 
    6974.750      4065.90     76280.65 
    6975.000      4241.90     76210.65 
    6975.250      4562.90     76199.65 
    6975.500      5064.90     76020.65 
    6975.750      5702.90     75797.65 
    6976.000      6404.90     75680.65 
    6976.250      7200.90     75687.65 
    6976.500      8285.90     76047.65 
    6976.750      9353.90     76481.65 
    6977.000     10385.90     76648.65 
    6977.250     11413.90     76677.65 
    6977.500     12373.90     76581.65 
    6977.750     13328.90     76579.65 
    6978.000     14301.90     76471.65 
    6978.250     15263.90     76386.65 
    6978.500     16065.90     76301.65 
    6978.750     16817.90     76294.65 
    6979.000     17528.90     76327.65 
    6979.250     18183.90     76288.65 
    6979.500     18786.90     76296.65 
    6979.750     19288.90     76257.65 
    6980.000     19686.90     76269.65 
    6980.250     20036.90     76221.65 
    6980.500     20309.90     76272.65 
    6980.750     20510.90     76258.65 
    6981.000     20675.90     76232.65 
    6981.250     20745.90     76217.65 
    6981.500     20789.90     76224.65 
    6981.750     20796.90     76219.65 
    6982.000     20757.90     76219.65 
    6982.250     20724.90     76187.65 
    6982.500     20631.90     76190.65 
    6982.750     20549.90     76164.65 
    6983.000     20461.90     76146.65 
    6983.250     20343.90     76119.65 
    6983.500     20230.90     76113.65 
    6983.750     20107.90     76096.65 
    6984.000     19984.90     76103.65 
    6984.250     19864.90     76131.65 
    6984.500     19696.90     76105.65 
    6984.750     19515.90     76072.65 
    6985.000     19403.90     76180.65 
    6985.250     19253.90     76164.65 
    6985.500     19131.90     76256.65 
    6985.750     19002.90     76172.65 
    6986.000     18862.90     76129.65 
    6986.250     18783.90     76117.65 
    6986.500     18759.90     76183.65 
    6986.750     18738.90     76132.65 
    6987.000     18760.90     76110.65 
    6987.250     18824.90     76175.65 
    6987.500     18912.90     76160.65 
    6987.750     18998.90     76108.65 
    6988.000     19140.90     76160.65 
    6988.250     19240.90     76199.65 
    6988.500     19343.90     76176.65 
    6988.750     19435.90     76119.65 
    6989.000     19512.90     76106.65 
    6989.250     19585.90     76054.65 
    6989.500     19686.90     76144.65 
    6989.750     19729.90     76135.65 
    6990.000     19754.90     76126.65 
    6990.250     19799.90     76058.65 
    6990.500     19806.90     76059.65 
    6990.750     19820.90     76144.65 
    6991.000     19856.90     76309.65 
    6991.250     19829.90     76295.65 
    6991.500     19775.90     76267.65 
    6991.750     19678.90     76137.65 
    6992.000     19581.90     76296.65 
    6992.250     19458.90     76283.65 
    6992.500     19294.90     76244.65 
    6992.750     19144.90     76189.65 
    6993.000     18943.90     76199.65 
    6993.250     18771.90     76234.65 
    6993.500     18577.90     76222.65 
    6993.750     18385.90     76185.65 
    6994.000     18199.90     76143.65 
    6994.250     18075.90     76243.65 
    6994.500     17933.90     76235.65 
    6994.750     17838.90     76275.65 
    6995.000     17727.90     76214.65 
    6995.250     17664.90     76187.65 
    6995.500     17640.90     76205.65 
    6995.750     17619.90     76189.65 
    6996.000     17652.90     76173.65 
    6996.250     17668.90     76180.65 
    6996.500     17682.90     76123.65 
    6996.750     17753.90     76199.65 
    6997.000     17854.90     76430.65 
    6997.250     17912.90     76447.65 
    6997.500     17942.90     76422.65 
    6997.750     17955.90     76397.65 
    6998.000     17987.90     76426.65 
    6998.250     17965.90     76370.65 
    6998.500     17956.90     76379.65 
    6998.750     17938.90     76337.65 
    6999.000     17904.90     76345.65 
    6999.250     17851.90     76370.65 
    6999.500     17821.90     76394.65 
    6999.750     17757.90     76321.65 
    7000.000     17719.90     76288.65 
    7000.250     17661.90     76260.65 
    7000.500     17643.90     76321.65 
    7000.750     17630.90     76318.65 
    7001.000     17634.90     76296.65 
    7001.250     17630.90     76306.65 
    7001.500     17658.90     76281.65 
    7001.750     17674.90     76272.65 
    7002.000     17745.90     76278.65 
    7002.935     18069.90     76244.65 
    7003.886     18421.90     76222.65 
    7004.854     18730.89     76108.64 
    7005.840     19017.87     76105.63 
    7006.843     19306.85     76087.60 
    7007.863     19695.81     76032.56 
    7008.900     20187.76     76074.51 
    7009.955     20622.69     76017.44 
    7011.026     20951.60     75981.35 
    7012.115     21102.49     75913.24 
    7013.221     21098.35     75866.10 
    7014.344     21048.19     75856.94 
    7015.483     21000.00     75879.75 
    7016.641     20991.77     76022.52 
    7017.815     20849.51     75917.27 
    7019.006     20690.21     75934.97 
    7020.215     20550.88     75974.63 
    7021.441     20458.50     75888.26 
    7022.684     20449.08     75908.84 
    7023.944     20598.61     75959.37 
    7025.221     20750.09     75918.84 
    7026.515     20845.52     75913.27 
    7027.827     20866.89     75959.65 
    7029.155     20759.21     75894.97 
    7030.501     20565.47     75958.23 
    7031.864     20239.67     75797.43 
    7033.244     19947.80     75884.56 
    7034.641     19737.87     76250.63 
    7036.056     19475.86     76234.63 
    7037.487     19288.79     76253.56 
    7038.936     19162.64     76291.41 
    7040.401     19091.41     76431.19 
    7041.884     19074.11     76486.89 
    7043.384     19161.72     76525.51 
    7044.901     19383.25     76577.04 
    7046.436     19806.70     76624.48 
    7047.987     20298.05     76664.84 
    7049.556     20837.32     76690.11 
    7051.142     21302.49     76853.28 
    7052.744     21618.56     76910.36 
    7054.364     21778.53     76954.34 
    7056.001     21874.41     76961.22 
    7057.656     21909.18     77017.99 
    7059.327     21870.84     77086.66 
    7061.016     21790.39     77142.22 
    7062.722     21734.84     77275.66 
    7064.444     21660.17     77314.00 
    7066.184     21680.38     77471.22 
    7067.941     21699.48     77524.32 
    7069.716     21714.45     77600.30 
    7071.507     21733.30     77720.16 
    7073.315     21725.03     78019.89 
    7075.142     21691.63     78114.49 
    7076.984     21696.09     78247.97 
    7078.844     21739.42     78372.30 
    7080.721     21781.62     78473.51 
    7082.616     21761.68     78552.58 
    7084.527     21680.60     78810.50 
    7086.456     21561.37     78887.28 
    7088.401     21522.00     79140.92 
    7090.364     21605.48     79410.41 
    7092.344     21765.81     79674.75 
    7094.341     21904.99     79836.94 
    7096.355     22030.01     79950.96 
    7098.387     22215.87     80049.84 
    7100.436     22484.57     80275.55 
    7102.501     22815.11     80436.10 
    7104.584     23151.49     80638.48 
    7106.684     23484.69     80770.70 
    7108.801     23752.73     80926.75 
    7110.935     23964.59     81116.63 
    7113.086     24071.28     81282.33 
    7115.255     24179.79     81423.84 
    7117.441     23792.12     80636.19 
    7119.644     24147.26     82833.35 
    7121.863     23912.23     83047.33 
    7124.101     23636.00     83154.11 
    7126.355     23324.58     83315.71 
    7128.626     23098.97     83425.12 
    7130.915     23013.17     83569.33 
    7133.220     23165.17     83913.34 
    7135.543     23411.97     84263.16 
    7137.883     23694.56     84679.77 
    7140.240     23947.96     85101.17 
    7142.614     24152.14     85464.38 
    7145.006     24287.11     85845.37 
    7147.415     24392.87     86103.15 
    7149.840     24562.42     86579.71 
    7152.283     24790.75     86882.05 
    7154.743     25070.86     87263.19 
    7157.220     25413.74     87634.09 
    7159.714     25742.41     87951.77 
    7162.225     26106.84     88415.23 
    7164.754     26394.05     88873.45 
    7167.299     26602.02     89208.45 
    7169.862     26700.76     89523.21 
    7172.442     26859.26     90068.73 
    7175.039     26926.52     90575.02 
    7177.653     27002.54     90852.06 
    7180.285     27095.32     91364.86 
    7182.933     27192.85     91933.41 
    7185.599     27298.13     92535.72 
    7188.282     27498.15     93028.77 
    7190.981     27698.93     93443.57 
    7193.699     27972.44     93900.11 
    7196.433     28219.70     94499.40 
    7199.184     28492.70     94889.41 
    7201.953     28812.43     95429.18 
    7204.738     29136.89     96016.67 
    7207.541     29466.09     96662.89 
    7210.361     29742.01     97261.84 
    7213.198     30069.66     97976.52 
    7216.052     30352.03     98524.93 
    7218.923     30669.13     99186.05 
    7221.812     31000.94     99736.89 
    7224.717     31260.46    100300.50 
    7227.640     31607.71    100946.70 
    7230.580     31913.66    101564.70 
    7233.537     32177.32    102237.40 
    7236.511     32412.69    102896.80 
    7239.503     32687.76    103781.90 
    7242.511     32940.53    104625.70 
    7245.537     33195.00    105258.20 
    7248.580     33491.17    105980.40 
    7251.639     33870.03    106705.30 
    7254.716     34197.59    107391.90 
    7257.811     34518.82    108000.20 
    7260.922     34832.75    108696.20 
    7264.050     35070.36    109114.80 
    7267.196     35416.66    109720.10 
    7270.358     36475.63    112582.20 
    7273.539     36754.28    112874.90 
    7276.735     37085.60    113337.20 
    7279.950     37471.59    114036.30 
    7283.181     37857.26    114672.00 
    7286.429     38269.59    115519.30 
    7289.695     38673.58    116384.40 
    7292.978     39050.24    117227.10 
    7296.277     39435.55    118157.40 
    7299.595     39778.52    118961.50 
    7302.929     39997.15    119165.10 
    7306.280     41003.43    121706.40 
    7309.648     41484.36    122658.40 
    7313.034     41976.93    123543.00 
    7316.437     42396.14    124460.30 
    7319.856     42816.01    125397.20 
    7323.293     43331.50    126370.80 
    7326.748     43750.64    127289.00 
    7330.219     44281.41    128490.80 
    7333.708     44747.82    129522.20 
    7337.213     45299.85    130741.30 
    7340.735     45813.51    131812.00 
    7344.275     46367.79    132868.40 
    7347.833     46970.70    133992.30 
    7351.406     47542.23    135106.90 
    7354.998     48217.37    136303.10 
    7358.606     48829.13    137376.00 
    7362.231     49493.50    138544.40 
    7365.875     50125.48    139737.40 
    7369.534     50740.07    141013.10 
    7373.211     51332.26    142143.30 
    7376.905     51949.05    143381.20 
    7380.617     52594.45    144627.60 
    7384.345     53228.44    145846.70 
    7388.090     53925.03    147087.30 
    7391.853     54621.21    148458.60 
    7395.633     55342.98    149790.40 
    7399.430     56015.34    151176.80 
    7403.244     56674.28    152580.90 
    7407.075     57410.80    153982.50 
    7410.924     58070.91    155147.60 
    7414.789     58401.59    155401.40 
    7418.672     59850.85    158714.70 
    7422.572     60190.68    159134.60 
    7426.489     61528.09    161998.10 
    7430.423     62206.05    163048.10 
    7434.374     62999.59    164289.70 
    7438.342     63824.69    165721.90 
    7442.328     64756.35    167310.60 
    7446.331     65663.56    168853.90 
    7450.350     66527.34    170486.80 
    7454.387     67366.66    171877.20 
    7458.441     68369.53    173590.10 
    7462.512     69216.96    175100.70 
    7466.601     70160.93    176745.70 
    7470.706     71066.44    178343.30 
    7474.829     72082.49    180105.40 
    7478.969     72903.09    181752.10 
    7483.125     74012.21    183844.30 
    7487.300     74952.87    185450.10 
    7491.491     75957.06    187234.30 
    7495.699     77066.78    189053.10 
    7499.925     78073.02    190627.50 
    7504.167     77985.80    189674.30 
    7508.427     80992.09    195969.70 
    7512.704     81817.89    197140.60 
    7516.998     82711.21    198408.00 
    7521.309     83777.05    200126.00 
    7525.638     84850.40    201844.40 
