#XDI/1.1  GSE/1.0
# Column.1: energy eV
# Column.2: itrans
# Column.3: i0
# Scan.end_time: 2009-07-06 12:00:02
# Scan.start_time: 2009-07-06 11:42:00
# Element.symbol:  Eu
# Element.edge:  L3
# Facility.Name:  APS
# Beamline.Name:  13-BM-D
# Beamline.xray_source:  bending magnet
# Mono.dspacing:  3.13555
# Mono.name: Si 111
# Beamline.Storage_Ring_Current: 101.895 || S:SRcurrentAI.VAL
# Beamline.FOE_Mono_angle_readback: 16.8337 || 13BMA:m17.RBV
# Beamline.Mono_Energy_drive_val: 6827.0000 || 13BMA:E:Energy.VAL
# Beamline.Mono_Energy_readback: 6822.0052 || 13BMA:E:E_RBV
# Beamline.Mono_Beam_Offset: 20.0000 || 13BMA:E:height.VAL
# Beamline.I0_sensitivity_value: 5 || 13BMD:A3sens_num.VAL
# Beamline.I0_sensitivity_value: nA/V || 13BMD:A3sens_unit.VAL
# Beamline.I1_sensitivity_value: 1 || 13BMD:A2sens_num.VAL
# Beamline.I1_sensitivity_value: nA/V || 13BMD:A2sens_unit.VAL
# Beamline.FOE_Mono_Yout: 10.7020 || 13BMA:m10.VAL
# Beamline.FOE_Mono_Yin: 10.9132 || 13BMA:m11.VAL
# Beamline.FOE_Mono_Yup: 9.9945 || 13BMA:m12.VAL
# Beamline.FOE_Mono_Cage_Y: -0.505 || 13BMA:m13.VAL
# Beamline.FOE_Mono_Z: 36.417 || 13BMA:m14.VAL
# Beamline.FOE_Mono_angle: 16.8340 || 13BMA:m17.VAL
# Beamline.BMD_Horiz_Width: 3.000 || 13BMD:BMDHt2.C
# Beamline.BMD_Horiz_Center: 3.000 || 13BMD:BMDHt2.D
# Beamline.BMD_Vertical_Width: 1.800 || 13BMD:BMDVt2.C
# Beamline.BMD_Vertical_Center: -14.000 || 13BMD:BMDVt2.D
# Beamline.Sample_X: 21.6008 || 13BMD:m82.VAL
# Beamline.Sample_Y__height: 112.0002 || 13BMD:m81.VAL
# Beamline.Sample_Z__focus: 78.855 || 13BMD:m39.VAL
# Beamline._13GE2_med_dxp1_PKTM: 2.00 us || 
# ScanParameters.Start: Scan.Member: Value
# ScanParameters.E0: 6977.00
# ScanParameters.Legend: Start       Stop       Step       Npts       Time   Kspace?
# ScanParameters.Region1: -150.00    -15.000     5.0000     28.000     1.5000   0
# ScanParameters.Region2: -15.000     25.000    0.25000     161.00     1.5000   0
# ScanParameters.Region3: 2.5616     12.000   0.047429     200.00     1.5000   1
# ScanParameters.End: here
#-------------------------
#  energy  itrans  i0
    6827.000     41685.90     78640.65 
    6832.000     40174.90     75401.65 
    6837.000     41235.90     76988.65 
    6842.000     41114.90     76247.65 
    6847.000     41037.90     75721.65 
    6852.000     40987.90     75259.65 
    6857.000     41108.90     75072.65 
    6862.000     41157.90     74900.65 
    6867.000     41303.90     74730.65 
    6872.000     41438.90     74630.65 
    6877.000     41568.90     74452.65 
    6882.000     41733.90     74415.65 
    6887.000     41944.90     74420.65 
    6892.000     42087.90     74358.65 
    6897.000     42271.90     74303.65 
    6902.000     42466.90     74340.65 
    6907.000     42652.90     74287.65 
    6912.000     42848.90     74320.65 
    6917.000     43102.90     74393.65 
    6922.000     43270.90     74366.65 
    6927.000     43464.90     74405.65 
    6932.000     43561.90     74265.65 
    6937.000     43684.90     74284.65 
    6942.000     43845.90     74393.65 
    6947.000     43804.90     74247.65 
    6952.000     43774.90     74485.65 
    6957.000     43379.90     74557.65 
    6962.000     42114.90     74629.65 
    6962.250     42263.90     75107.65 
    6962.500     42326.90     75432.65 
    6962.750     42316.90     75637.65 
    6963.000     42271.90     75835.65 
    6963.250     42199.90     75970.65 
    6963.500     42044.90     76026.65 
    6963.750     41915.90     76044.65 
    6964.000     41791.90     76165.65 
    6964.250     41605.90     76120.65 
    6964.500     41387.90     76102.65 
    6964.750     41216.90     76164.65 
    6965.000     40949.90     76113.65 
    6965.250     40725.90     76140.65 
    6965.500     40475.90     76175.65 
    6965.750     40142.90     76145.65 
    6966.000     39796.90     76086.65 
    6966.250     39503.90     76167.65 
    6966.500     39155.90     76189.65 
    6966.750     38750.90     76138.65 
    6967.000     38239.90     76084.65 
    6967.250     37792.90     76160.65 
    6967.500     37197.90     76125.65 
    6967.750     36775.90     76390.65 
    6968.000     36191.90     76412.65 
    6968.250     35496.90     76423.65 
    6968.500     34724.90     76373.65 
    6968.750     33888.90     76355.65 
    6969.000     32983.90     76419.65 
    6969.250     32024.90     76389.65 
    6969.500     30823.90     76408.65 
    6969.750     29523.90     76387.65 
    6970.000     28157.90     76311.65 
    6970.250     26702.90     76293.65 
    6970.500     25164.90     76330.65 
    6970.750     23581.90     76296.65 
    6971.000     21855.90     76327.65 
    6971.250     19731.90     76256.65 
    6971.500     17923.90     76294.65 
    6971.750     16103.90     76230.65 
    6972.000     14409.90     76314.65 
    6972.250     12765.90     76242.65 
    6972.500     11082.90     76234.65 
    6972.750      9370.90     76197.65 
    6973.000      8057.90     76287.65 
    6973.250      6905.90     76250.65 
    6973.500      5938.90     76178.65 
    6973.750      5170.90     76149.65 
    6974.000      4599.90     76222.65 
    6974.250      4220.90     76166.65 
    6974.500      4043.90     76144.65 
    6974.750      4055.90     76185.65 
    6975.000      4239.90     76127.65 
    6975.250      4577.90     75994.65 
    6975.500      5073.90     75887.65 
    6975.750      5708.90     75678.65 
    6976.000      6416.90     75582.65 
    6976.250      7219.90     75643.65 
    6976.500      8299.90     75935.65 
    6976.750      9367.90     76477.65 
    6977.000     10389.90     76632.65 
    6977.250     11439.90     76680.65 
    6977.500     12405.90     76545.65 
    6977.750     13337.90     76459.65 
    6978.000     14298.90     76347.65 
    6978.250     15267.90     76294.65 
    6978.500     16085.90     76249.65 
    6978.750     16845.90     76234.65 
    6979.000     17518.90     76143.65 
    6979.250     18149.90     76092.65 
    6979.500     18743.90     76052.65 
    6979.750     19321.90     76276.65 
    6980.000     19756.90     76436.65 
    6980.250     20095.90     76369.65 
    6980.500     20328.90     76303.65 
    6980.750     20550.90     76334.65 
    6981.000     20683.90     76245.65 
    6981.250     20762.90     76284.65 
    6981.500     20825.90     76303.65 
    6981.750     20820.90     76296.65 
    6982.000     20800.90     76254.65 
    6982.250     20737.90     76266.65 
    6982.500     20648.90     76186.65 
    6982.750     20577.90     76314.65 
    6983.000     20477.90     76279.65 
    6983.250     20361.90     76278.65 
    6983.500     20251.90     76192.65 
    6983.750     20105.90     76171.65 
    6984.000     19996.90     76268.65 
    6984.250     19857.90     76235.65 
    6984.500     19735.90     76265.65 
    6984.750     19547.90     76192.65 
    6985.000     19397.90     76175.65 
    6985.250     19254.90     76173.65 
    6985.500     19110.90     76182.65 
    6985.750     19000.90     76207.65 
    6986.000     18931.90     76323.65 
    6986.250     18851.90     76370.65 
    6986.500     18826.90     76374.65 
    6986.750     18802.90     76366.65 
    6987.000     18812.90     76332.65 
    6987.250     18865.90     76365.65 
    6987.500     18949.90     76391.65 
    6987.750     19065.90     76392.65 
    6988.000     19163.90     76342.65 
    6988.250     19250.90     76280.65 
    6988.500     19347.90     76297.65 
    6988.750     19481.90     76339.65 
    6989.000     19567.90     76354.65 
    6989.250     19650.90     76333.65 
    6989.500     19702.90     76281.65 
    6989.750     19750.90     76233.65 
    6990.000     19784.90     76214.65 
    6990.250     19834.90     76299.65 
    6990.500     19848.90     76295.65 
    6990.750     19858.90     76258.65 
    6991.000     19843.90     76220.65 
    6991.250     19799.90     76152.65 
    6991.500     19741.90     76199.65 
    6991.750     19678.90     76211.65 
    6992.000     19569.90     76171.65 
    6992.250     19414.90     76096.65 
    6992.500     19300.90     76197.65 
    6992.750     19148.90     76170.65 
    6993.000     18922.90     76091.65 
    6993.250     18739.90     76083.65 
    6993.500     18567.90     76132.65 
    6993.750     18377.90     76065.65 
    6994.000     18211.90     76049.65 
    6994.250     18062.90     76149.65 
    6994.500     17919.90     76093.65 
    6994.750     17804.90     76056.65 
    6995.000     17728.90     76133.65 
    6995.250     17664.90     76141.65 
    6995.500     17649.90     76183.65 
    6995.750     17618.90     76151.65 
    6996.000     17625.90     76106.65 
    6996.250     17649.90     76106.65 
    6996.500     17671.90     76096.65 
    6996.750     17713.90     76118.65 
    6997.000     17766.90     76170.65 
    6997.250     17804.90     76121.65 
    6997.500     17833.90     76116.65 
    6997.750     17875.90     76170.65 
    6998.000     17950.90     76387.65 
    6998.250     17951.90     76316.65 
    6998.500     17935.90     76300.65 
    6998.750     17897.90     76233.65 
    6999.000     17876.90     76304.65 
    6999.250     17844.90     76348.65 
    6999.500     17766.90     76225.65 
    6999.750     17724.90     76194.65 
    7000.000     17662.90     76173.65 
    7000.250     17636.90     76195.65 
    7000.500     17600.90     76178.65 
    7000.750     17592.90     76134.65 
    7001.000     17580.90     76202.65 
    7001.250     17598.90     76172.65 
    7001.500     17611.90     76137.65 
    7001.750     17651.90     76137.65 
    7002.000     17722.90     76158.65 
    7002.935     18033.90     76128.65 
    7003.886     18376.90     76019.65 
    7004.854     18728.89     76045.64 
    7005.840     18976.87     75929.63 
    7006.843     19265.85     75941.60 
    7007.863     19683.81     75936.56 
    7008.900     20155.76     75967.51 
    7009.955     20665.69     76115.44 
    7011.026     20991.60     76045.35 
    7012.115     21156.49     76027.24 
    7013.221     21143.35     76040.10 
    7014.344     21099.19     76041.94 
    7015.483     21071.00     76132.75 
    7016.641     21027.77     76160.52 
    7017.815     20894.51     76122.27 
    7019.006     20733.21     76094.97 
    7020.215     20600.88     76092.63 
    7021.441     20502.50     76061.26 
    7022.684     20501.08     76083.84 
    7023.944     20619.61     76105.37 
    7025.221     20776.09     76101.84 
    7026.515     20903.52     76183.27 
    7027.827     20887.89     76134.65 
    7029.155     20790.21     76153.97 
    7030.501     20619.47     76157.23 
    7031.864     20264.67     76018.43 
    7033.244     19935.80     75978.56 
    7034.641     19709.87     76234.63 
    7036.056     19447.86     76196.63 
    7037.487     19277.79     76251.56 
    7038.936     19140.64     76293.41 
    7040.401     19149.41     76645.19 
    7041.884     19100.11     76697.89 
    7043.384     19177.72     76726.51 
    7044.901     19438.25     76808.04 
    7046.436     19841.70     76856.48 
    7047.987     20353.05     76891.84 
    7049.556     20920.32     76979.11 
    7051.142     21364.49     77023.28 
    7052.744     21656.56     77024.36 
    7054.364     21844.53     77117.34 
    7056.001     21921.41     77168.22 
    7057.656     21970.18     77198.99 
    7059.327     21968.84     77304.66 
    7061.016     21858.39     77310.22 
    7062.722     21823.84     77484.66 
    7064.444     21747.17     77517.00 
    7066.184     21765.38     77657.22 
    7067.941     21789.48     77738.32 
    7069.716     21798.45     77888.30 
    7071.507     21793.30     77963.16 
    7073.315     21765.03     78094.89 
    7075.142     21716.63     78199.49 
    7076.984     21721.09     78371.97 
    7078.844     21765.42     78391.30 
    7080.721     21798.62     78535.51 
    7082.616     21748.68     78577.58 
    7084.527     21635.60     78723.50 
    7086.456     21549.37     78862.28 
    7088.401     21476.00     79049.92 
    7090.364     21594.48     79344.41 
    7092.344     21733.81     79625.75 
    7094.341     21870.99     79748.94 
    7096.355     22041.01     79906.96 
    7098.387     22218.87     80096.84 
    7100.436     22492.57     80240.55 
    7102.501     22826.11     80473.10 
    7104.584     23167.49     80662.48 
    7106.684     23508.69     80852.70 
    7108.801     23772.73     80964.75 
    7110.935     23982.59     81177.63 
    7113.086     24065.28     81233.33 
    7115.255     24159.79     81445.84 
    7117.441     23792.12     80663.19 
    7119.644     24075.26     82642.35 
    7121.863     23804.23     82695.33 
    7124.101     23541.00     82853.11 
    7126.355     23230.58     83033.71 
    7128.626     23031.97     83176.12 
    7130.915     22982.17     83420.33 
    7133.220     23144.17     83829.34 
    7135.543     23401.97     84246.16 
    7137.883     23669.56     84561.77 
    7140.240     23937.96     85010.17 
    7142.614     24145.14     85395.38 
    7145.006     24289.11     85767.37 
    7147.415     24379.87     86045.15 
    7149.840     24567.42     86478.71 
    7152.283     24785.75     86798.05 
    7154.743     25083.86     87183.19 
    7157.220     25398.74     87514.09 
    7159.714     25762.41     87871.77 
    7162.225     26114.84     88334.23 
    7164.754     26381.05     88757.45 
    7167.299     26596.02     89125.45 
    7169.862     26727.76     89488.21 
    7172.442     26862.26     90044.73 
    7175.039     26969.52     90545.02 
    7177.653     27018.54     90889.06 
    7180.285     27106.32     91412.86 
    7182.933     27207.85     91922.41 
    7185.599     27288.13     92452.72 
    7188.282     27525.15     93180.77 
    7190.981     27801.93     93787.57 
    7193.699     28072.44     94275.11 
    7196.433     28318.70     94704.40 
    7199.184     28554.70     95190.41 
    7201.953     28856.43     95702.18 
    7204.738     29147.89     96245.67 
    7207.541     29467.09     96802.89 
    7210.361     29742.01     97468.84 
    7213.198     30037.66     97991.52 
    7216.052     30346.03     98603.93 
    7218.923     30664.13     99167.05 
    7221.812     30983.94     99772.89 
    7224.717     31294.46    100418.50 
    7227.640     31627.71    101166.70 
    7230.580     31906.66    101745.70 
    7233.537     32216.32    102412.40 
    7236.511     32454.69    103104.80 
    7239.503     32687.76    103846.90 
    7242.511     32960.53    104653.70 
    7245.537     33211.00    105326.20 
    7248.580     33500.17    105998.40 
    7251.639     33887.03    106680.30 
    7254.716     34231.59    107329.90 
    7257.811     34556.82    108041.20 
    7260.922     34832.75    108675.20 
    7264.050     35057.36    109111.80 
    7267.196     35417.66    109683.10 
    7270.358     36444.63    112441.20 
    7273.539     36734.28    112747.90 
    7276.735     37019.60    113156.20 
    7279.950     37465.59    113990.30 
    7283.181     37845.26    114626.00 
    7286.429     38227.59    115454.30 
    7289.695     38642.58    116284.40 
    7292.978     39097.24    117281.10 
    7296.277     39407.55    118112.40 
    7299.595     39779.52    118954.50 
    7302.929     39905.15    118900.10 
    7306.280     40897.43    121492.40 
    7309.648     41335.36    122259.40 
    7313.034     41907.93    123403.00 
    7316.437     42438.14    124446.30 
    7319.856     42909.01    125525.20 
    7323.293     43366.50    126548.80 
    7326.748     43807.64    127416.00 
    7330.219     44292.41    128609.80 
    7333.708     44768.82    129588.20 
    7337.213     45294.85    130812.30 
    7340.735     45839.51    131787.00 
    7344.275     46369.79    132890.40 
    7347.833     46945.70    133916.30 
    7351.406     47519.23    135019.90 
    7354.998     48171.37    136067.10 
    7358.606     48779.13    137236.00 
    7362.231     49459.50    138409.40 
    7365.875     50040.48    139570.40 
    7369.534     50662.07    140807.10 
    7373.211     51340.26    142199.30 
    7376.905     52115.05    143843.20 
    7380.617     52748.45    145052.60 
    7384.345     53413.44    146292.70 
    7388.090     54101.03    147658.30 
    7391.853     54809.21    149008.60 
    7395.633     55496.98    150363.40 
    7399.430     56186.34    151626.80 
    7403.244     56883.28    153029.90 
    7407.075     57564.80    154455.50 
    7410.924     58215.91    155592.60 
    7414.789     58581.59    155947.40 
    7418.672     59978.85    159226.70 
    7422.572     60408.68    159743.60 
    7426.489     61517.09    162096.10 
    7430.423     62216.05    163234.10 
    7434.374     62944.59    164369.70 
    7438.342     63852.69    165800.90 
    7442.328     64762.35    167273.60 
    7446.331     65722.56    168899.90 
    7450.350     66661.34    170504.80 
    7454.387     67495.66    172072.20 
    7458.441     68497.53    173754.10 
    7462.512     69322.96    175100.70 
    7466.601     70245.93    176672.70 
    7470.706     71232.44    178544.30 
    7474.829     72114.49    180229.40 
    7478.969     73034.09    182022.10 
    7483.125     73868.21    183444.30 
    7487.300     74699.87    185143.10 
    7491.491     75921.06    187359.30 
    7495.699     76994.78    189228.10 
    7499.925     78073.02    190760.50 
    7504.167     78016.80    190009.30 
    7508.427     81014.09    196340.70 
    7512.704     81754.89    197305.60 
    7516.998     82662.21    198598.00 
    7521.309     83773.05    200160.00 
    7525.638     84946.40    201936.40 
