#XDI/1.1  GSE/1.0
# Column.1: energy eV
# Column.2: itrans
# Column.3: i0
# Scan.end_time: 2008-04-12 09:37:51
# Scan.start_time: 2008-04-12 09:23:32
# Element.symbol:  W
# Element.edge:  L3
# Mono.d_spacing:  3.13555
# Mono.name: Si 111
# Sample.temperature: room temperature
# Sample.formula: W metal
# Sample.name: W
# Sample.prep: powder on tape, many layers
# Facility.Name:  APS
# Beamline.Name:  13-BM-D
# Beamline.xray_source:  bending magnet
# Beamline.Storage_Ring_Current: 101.246
# Beamline.I0: 5 nA/V
# Beamline.I1: 5 nA/V
# ScanParameters.E0: 10207.0
# ScanParameters.Legend: Start       Stop       Step       Npts       Time   Kspace?
# ScanParameters.Region1: -150.00    -25.000     5.0000     26.000     1.0000   0
# ScanParameters.Region2: -25.000     30.000    0.25000     221.00     1.0000   0
# ScanParameters.Region3: 2.8061     17.000   0.049979     285.00     1.0000   1
#-------------------------
#  energy  itrans  i0
   10057.000    163364.20     80813.70
   10062.000    165498.20     81074.70
   10067.000    164119.20     80456.70
   10072.000    164951.20     80569.70
   10077.000    164697.20     80286.70
   10082.000    166021.20     80645.70
   10087.000    165857.20     80274.70
   10092.000    165590.20     79885.70
   10097.000    166074.20     79848.70
   10102.000    166978.20     79979.70
   10107.000    167302.20     79857.70
   10112.000    167161.20     79537.70
   10117.000    168206.20     79771.70
   10122.000    169765.20     80241.70
   10127.000    169990.20     80159.70
   10132.000    169484.20     79688.70
   10137.000    170090.20     79818.70
   10142.000    171068.20     80116.70
   10147.000    170998.20     79994.70
   10152.000    170520.20     79661.70
   10157.000    170725.20     79791.70
   10162.000    170883.20     79994.70
   10167.000    170096.20     79909.70
   10172.000    167993.20     79512.70
   10177.000    166305.20     79701.70
   10182.000    163430.20     80059.70
   10182.250    163676.20     80365.70
   10182.500    163725.20     80502.70
   10182.750    163533.20     80521.70
   10183.000    163110.20     80448.70
   10183.250    162719.20     80396.70
   10183.500    162392.20     80373.70
   10183.750    162031.20     80295.70
   10184.000    161713.20     80291.70
   10184.250    161383.20     80269.70
   10184.500    161136.20     80298.70
   10184.750    160969.20     80381.70
   10185.000    160510.20     80304.70
   10185.250    160327.20     80394.70
   10185.500    159945.20     80372.70
   10185.750    159719.20     80468.70
   10186.000    159264.20     80438.70
   10186.250    158874.20     80411.70
   10186.500    158302.20     80360.70
   10186.750    158031.20     80397.70
   10187.000    157322.20     80318.70
   10187.250    156890.20     80246.70
   10187.500    156470.20     80288.70
   10187.750    156075.20     80336.70
   10188.000    155536.20     80337.70
   10188.250    155089.20     80425.70
   10188.500    154500.20     80371.70
   10188.750    153854.20     80343.70
   10189.000    153280.20     80349.70
   10189.250    152472.20     80274.70
   10189.500    151838.20     80216.70
   10189.750    151124.20     80188.70
   10190.000    150219.20     80089.70
   10190.250    149623.20     80088.70
   10190.500    148830.20     80103.70
   10190.750    148494.20     80279.70
   10191.000    147722.20     80343.70
   10191.250    147076.20     80435.70
   10191.500    146131.20     80420.70
   10191.750    145255.20     80415.70
   10192.000    144169.20     80355.70
   10192.250    143074.20     80289.70
   10192.500    142183.20     80249.70
   10192.750    141178.20     80298.70
   10193.000    140272.20     80259.70
   10193.250    139056.20     80225.70
   10193.500    138126.20     80255.70
   10193.750    136807.20     80267.70
   10194.000    135648.20     80224.70
   10194.250    134112.20     80185.70
   10194.500    132644.20     80203.70
   10194.750    131240.20     80124.70
   10195.000    129656.20     80108.70
   10195.250    128259.20     80161.70
   10195.500    126526.20     80133.70
   10195.750    125058.20     80152.70
   10196.000    123162.20     80139.70
   10196.250    121729.20     80235.70
   10196.500    119502.20     80194.70
   10196.750    117317.20     80186.70
   10197.000    115209.20     80188.70
   10197.250    112650.20     80110.70
   10197.500    110314.20     80080.70
   10197.750    107735.20     80170.70
   10198.000    105287.20     80168.70
   10198.250    102468.20     80205.70
   10198.500     99850.20     80257.70
   10198.750     96763.20     80295.70
   10199.000     93405.20     80224.70
   10199.250     90378.20     80167.70
   10199.500     86378.20     80060.70
   10199.750     83211.20     80090.70
   10200.000     78926.20     80073.70
   10200.250     75146.20     80051.70
   10200.500     70814.20     80092.70
   10200.750     66933.20     80092.70
   10201.000     62295.20     80033.70
   10201.250     58631.20     80104.70
   10201.500     54359.20     80160.70
   10201.750     49639.20     80174.70
   10202.000     45785.20     80177.70
   10202.250     41159.20     80142.70
   10202.500     37259.20     80065.70
   10202.750     32416.20     80039.70
   10203.000     28814.20     80079.70
   10203.250     24290.20     80062.70
   10203.500     20944.20     80060.70
   10203.750     17170.20     80031.70
   10204.000     14435.20     80013.70
   10204.250     11560.20     80085.70
   10204.500      9109.20     80055.70
   10204.750      7503.20     80073.70
   10205.000      5789.20     80052.70
   10205.250      4726.20     80057.70
   10205.500      3630.20     80022.70
   10205.750      2938.20     80022.70
   10206.000      2305.20     79990.70
   10206.250      1922.20     80053.70
   10206.500      1605.20     79981.70
   10206.750      1421.20     80007.70
   10207.000      1271.20     80010.70
   10207.250      1192.20     79991.70
   10207.500      1164.20     79928.70
   10207.750      1169.20     79874.70
   10208.000      1198.20     79845.70
   10208.250      1270.20     79757.70
   10208.500      1362.20     79768.70
   10208.750      1510.20     79586.70
   10209.000      1667.20     79505.70
   10209.250      1918.20     79450.70
   10209.500      2151.20     79662.70
   10209.750      2485.20     80046.70
   10210.000      2768.20     80318.70
   10210.250      3132.20     80640.70
   10210.500      3501.20     80686.70
   10210.750      3815.20     80593.70
   10211.000      4227.20     80500.70
   10211.250      4565.20     80274.70
   10211.500      5008.20     80213.70
   10211.750      5400.20     80125.70
   10212.000      5863.20     79981.70
   10212.250      6276.20     79950.70
   10212.500      6756.20     79913.70
   10212.750      7138.20     79967.70
   10213.000      7592.20     79919.70
   10213.250      7947.20     79905.70
   10213.500      8349.20     79927.70
   10213.750      8659.20     79932.70
   10214.000      9004.20     79891.70
   10214.250      9327.20     79950.70
   10214.500      9577.20     79916.70
   10214.750      9858.20     79847.70
   10215.000     10082.20     79900.70
   10215.250     10330.20     79907.70
   10215.500     10505.20     79937.70
   10215.750     10697.20     79875.70
   10216.000     10859.20     79815.70
   10216.250     11032.20     79840.70
   10216.500     11196.20     79934.70
   10216.750     11419.20     80331.70
   10217.000     11567.20     80400.70
   10217.250     11728.20     80357.70
   10217.500     11870.20     80361.70
   10217.750     12035.20     80242.70
   10218.000     12231.20     80224.70
   10218.250     12396.20     80245.70
   10218.500     12594.20     80248.70
   10218.750     12779.20     80273.70
   10219.000     12986.20     80231.70
   10219.250     13187.20     80344.70
   10219.500     13397.20     80295.70
   10219.750     13585.20     80251.70
   10220.000     13816.20     80312.70
   10220.250     14001.20     80243.70
   10220.500     14245.20     80253.70
   10220.750     14455.20     80251.70
   10221.000     14692.20     80225.70
   10221.250     14933.20     80255.70
   10221.500     15198.20     80311.70
   10221.750     15391.20     80254.70
   10222.000     15658.20     80331.70
   10222.250     15838.20     80233.70
   10222.500     16073.20     80183.70
   10222.750     16270.20     80117.70
   10223.000     16467.20     80161.70
   10223.250     16663.20     80152.70
   10223.500     16851.20     80203.70
   10223.750     17056.20     80218.70
   10224.000     17197.20     80160.70
   10224.250     17385.20     80171.70
   10224.500     17545.20     80225.70
   10224.750     17688.20     80236.70
   10225.000     17790.20     80136.70
   10225.250     17933.20     80149.70
   10225.500     18066.20     80219.70
   10225.750     18208.20     80194.70
   10226.000     18308.20     80117.70
   10226.250     18442.20     80021.70
   10226.500     18585.20     80018.70
   10226.750     18801.20     80155.70
   10227.000     18944.20     80049.70
   10227.250     19161.20     80084.70
   10227.500     19351.20     80173.70
   10227.750     19539.20     80058.70
   10228.000     19732.20     80165.70
   10228.250     19921.20     80158.70
   10228.500     20100.20     80165.70
   10228.750     20241.20     80208.70
   10229.000     20390.20     80153.70
   10229.250     20500.20     80166.70
   10229.500     20622.20     80074.70
   10229.750     20713.20     80085.70
   10230.000     20820.20     80041.70
   10230.250     20898.20     80079.70
   10230.500     21008.20     80156.70
   10230.750     21048.20     80149.70
   10231.000     21097.20     80115.70
   10231.250     21131.20     80148.70
   10231.500     21161.20     80113.70
   10231.750     21186.20     80076.70
   10232.000     21193.20     80080.70
   10232.250     21189.20     80061.70
   10232.500     21217.20     80137.70
   10232.750     21191.20     80017.70
   10233.000     21196.20     80065.70
   10233.250     21207.20     80051.70
   10233.500     21202.20     80020.70
   10233.750     21233.20     80060.70
   10234.000     21231.20     79979.70
   10234.250     21240.20     79957.70
   10234.500     21238.20     79947.70
   10234.750     21229.20     79873.70
   10235.000     21209.20     79649.70
   10235.250     21272.20     79605.70
   10235.500     21416.20     79578.70
   10235.750     21572.20     79680.70
   10236.000     21747.20     79829.70
   10236.250     21887.20     80061.70
   10236.500     21972.20     80225.70
   10236.750     22052.20     80343.70
   10237.000     22106.20     80303.70
   10238.080     22308.17     80227.67
   10239.180     22466.07     80242.60
   10240.290     22366.90     80090.47
   10241.430     22420.67     80294.30
   10242.580     22418.37     80218.06
   10243.750     22491.01     80117.79
   10244.950     22735.58     80026.46
   10246.160     23176.08     80009.08
   10247.390     23696.52     80085.65
   10248.640     24262.88     80119.16
   10249.910     24765.19     80230.63
   10251.190     25019.43     80208.05
   10252.500     24963.60     80169.41
   10253.830     24660.70     80295.73
   10255.170     24234.74     80708.00
   10256.540     23736.71     80774.21
   10257.920     23224.62     80777.38
   10259.320     22826.46     80908.48
   10260.740     22532.23     81075.55
   10262.180     22411.94     81181.56
   10263.640     22439.58     81168.52
   10265.120     22647.16     81250.43
   10266.610     22895.66     81210.29
   10268.130     23174.11     81334.10
   10269.660     23377.48     81454.86
   10271.220     23536.79     81520.56
   10272.790     23707.04     81658.22
   10274.380     23813.21     81764.83
   10275.990     23825.32     81845.38
   10277.630     23796.37     81950.88
   10279.270     23686.34     82154.34
   10280.940     23515.26     82259.74
   10282.630     23298.10     82387.09
   10284.340     23137.88     82554.40
   10286.060     23075.59     82706.65
   10287.810     23125.24     82822.84
   10289.570     23385.82     82932.00
   10291.350     23878.33     83118.09
   10293.150     24403.78     83261.14
   10294.970     24901.16     83385.14
   10296.810     25230.48     83420.09
   10298.670     25429.73     83546.98
   10300.550     25438.91     83645.83
   10302.450     25380.03     83819.63
   10304.360     25271.07     83914.37
   10306.300     25280.06     84304.06
   10308.250     25308.98     84428.70
   10310.220     25412.83     84596.30
   10312.210     25542.61     84851.84
   10314.220     25613.33     85086.33
   10316.250     25613.98     85357.77
   10318.300     25538.57     85535.16
   10320.370     25406.09     85634.49
   10322.460     25305.54     85867.78
   10324.560     25212.93     86069.02
   10326.690     25150.25     86437.20
   10328.830     25041.50     86725.34
   10331.000     24896.69     86906.42
   10333.180     24756.81     87057.46
   10335.380     24621.87     87092.44
   10337.600     24627.86     87302.38
   10339.840     24742.78     87625.26
   10342.100     24910.63     87833.09
   10344.380     25166.43     88162.87
   10346.670     25520.15     88113.60
   10348.990     26131.81     88465.27
   10351.320     26898.40     88929.91
   10353.670     27520.92     89307.48
   10356.050     27965.38     89577.01
   10358.440     28187.77     89658.48
   10360.850     28392.10     89908.91
   10363.280     28456.36     89956.29
   10365.730     28621.55     90665.61
   10368.190     28630.68     90840.88
   10370.680     28649.74     90892.11
   10373.190     28817.74     91262.28
   10375.710     28970.66     91649.40
   10378.250     29072.53     92017.48
   10380.820     29210.32     92495.49
   10383.400     29345.05     92943.46
   10386.000     29404.71     93180.38
   10388.620     29296.31     93349.25
   10391.260     28939.84     93629.06
   10393.920     28256.31     93636.84
   10396.590     27631.71     94085.55
   10399.290     27056.04     94546.21
   10402.010     26696.30     94850.83
   10404.740     26725.50     95139.39
   10407.490     27352.63     95723.91
   10410.260     28476.70     95934.37
   10413.060     30078.70     96542.78
   10415.870     31493.63     96664.14
   10418.700     32424.50     96906.45
   10421.540     32919.30     97223.71
   10424.410     33046.04     97683.92
   10427.300     32910.71     98016.08
   10430.200     32802.31     98348.19
   10433.130     32861.84     98762.24
   10436.070     33010.32     99214.25
   10439.030     33137.72     99623.20
   10442.010     32832.05     99017.11
   10445.020     33210.33    101045.00
   10448.040     32953.53    101322.80
   10451.070     32943.67    101895.50
   10454.130     33036.74    102212.20
   10457.210     33236.75    102610.90
   10460.300     33383.69    103078.50
   10463.420     33405.56    103605.00
   10466.550     33318.37    103937.50
   10469.710     33360.11    104476.00
   10472.880     33305.78    104573.40
   10476.070     33363.39    104802.70
   10479.280     33640.93    105303.00
   10482.510     34082.41    105695.30
   10485.750     34861.82    106352.50
   10489.020     35719.16    106901.60
   10492.310     36489.43    107520.70
   10495.610     37114.64    108066.70
   10498.940     37645.79    108474.70
   10502.280     38149.87    108750.70
   10505.640     38471.88    108849.60
   10509.020     38763.82    109573.40
   10512.420     38721.70    109886.20
   10515.840     38726.51    110418.90
   10519.280     38820.26    111167.60
   10522.740     38717.94    111494.30
   10526.220     38715.55    112116.80
   10529.710     38589.10    112448.40
   10533.230     38566.58    112915.90
   10536.760     38625.00    113487.30
   10540.310     38896.34    114386.70
   10543.880     39104.63    114759.00
   10547.470     39404.84    114983.30
   10551.080     39807.99    115125.50
   10554.710     40509.07    115886.70
   10558.360     40947.09    115883.80
   10562.030     41902.04    117482.90
   10565.710     42341.93    118005.90
   10569.420     42610.74    118141.90
   10573.140     43524.50    119657.80
   10576.880     43895.18    119469.70
   10580.650     44484.80    119835.50
   10584.430     45011.35    120495.30
   10588.230     45257.84    121104.00
   10592.050     45447.26    122064.70
   10595.880     45591.61    122649.30
   10599.740     45656.90    122860.90
   10603.620     45800.12    123032.40
   10607.510     46015.28    123622.90
   10611.430     46452.37    124778.30
   10615.360     46726.39    125463.70
   10619.310     47025.34    126029.00
   10623.280     47415.23    126406.30
   10627.270     47816.06    127003.50
   10631.280     48164.82    127513.70
   10635.310     48565.50    128459.80
   10639.360     48798.13    128965.90
   10643.420     49095.69    129456.90
   10647.510     49432.18    129760.80
   10651.610     49942.61    130118.80
   10655.740     50566.96    130578.60
   10659.880     51383.26    131519.40
   10664.040     52194.48    132611.20
   10668.220     52940.64    133734.90
   10672.420     53298.74    133733.60
   10676.640     53710.77    133970.20
   10680.880     54388.73    134956.70
   10685.140     54830.63    135715.20
   10689.410     55340.45    136414.70
   10693.710     56051.22    137293.10
   10698.020     56921.91    138567.50
   10702.350     56967.54    138722.80
   10706.710     57239.11    139738.00
   10711.080     57447.61    140309.20
   10715.470     57526.04    140253.40
   10719.880     58042.40    141076.50
   10724.300     58802.70    142181.50
   10728.750     59322.93    142894.50
   10733.220     59838.10    143855.50
   10737.700     60337.20    144901.40
   10742.210     60805.23    145647.20
   10746.730     61397.20    146508.00
   10751.270     61846.10    146653.80
   10755.830     62504.93    147124.50
   10760.410     63315.70    148281.10
   10765.010     63720.41    149254.70
   10769.630     63936.04    150192.30
   10774.270     63780.61    149968.80
   10778.930     64199.11    150247.20
   10783.600     65422.55    151092.60
   10788.290     66891.92    151891.90
   10793.010     68658.23    153094.20
   10797.740     69879.46    154103.50
   10802.490     71133.63    155651.60
   10807.260     71950.74    156416.80
   10812.050     72117.78    155976.90
   10816.860     73153.75    158281.90
   10821.690     73161.66    158616.90
   10826.540     73122.50    158787.80
   10831.400     72744.27    158673.70
   10836.290     72626.98    159366.50
   10841.190     72764.63    160442.30
   10846.110     73648.20    162461.10
   10851.060     74513.70    163793.80
   10856.020     75527.15    164528.40
   10861.000     76165.52    164233.00
   10866.000     76912.84    164184.50
   10871.010     77649.08    164741.00
   10876.050     78575.26    165991.40
   10881.110     79135.37    166998.80
   10886.180     79268.41    167687.10
   10891.280     81669.39    171064.40
   10896.390     82215.30    170889.60
   10901.520     82617.15    170442.80
   10906.670     83768.92    170591.90
   10911.850     85518.64    171640.00
   10917.040     87261.29    173048.00
   10922.240     88722.87    174743.00
   10927.470     89581.38    175434.90
   10932.720     90531.83    176227.80
   10937.980     91081.21    176834.60
   10943.270     91104.52    176743.40
   10948.570     91608.77    177538.10
   10953.890     92426.95    178968.80
   10959.240     93210.07    180406.40
   10964.600     93685.13    181790.90
   10969.980     94269.11    183589.50
   10975.380     94218.02    184163.90
   10980.790     94456.88    184721.30
   10986.230     94424.66    184676.70
   10991.690     95773.38    185680.00
   10997.160     97925.03    186626.30
   11002.650    101111.60    190876.50
   11008.170    101736.10    190414.70
   11013.700    102341.60    190391.80
   11019.250    103055.00    190776.80
   11024.820    103793.30    190926.80
   11030.410    105522.60    191901.80
   11036.020    107900.70    193876.70
   11041.640    109709.90    194728.60
   11047.290    110772.90    194945.40
   11052.960    112403.90    196334.10
   11058.640    113480.80    197099.80
   11064.340    114884.70    198452.50
   11070.070    115645.50    199867.10
   11075.810    116264.20    200872.60
   11081.570    116403.90    201493.10
   11087.350    116770.50    202645.60
   11093.150    117438.00    204492.00
   11098.960    117292.40    204680.30
   11104.800    118700.80    205994.60
   11110.660    119652.20    206309.90
   11116.530    121166.40    207034.10
   11122.420    123968.60    210182.30
   11128.340    125548.70    210539.30
   11134.270    126035.80    209849.40
   11140.220    126875.80    209857.40
   11146.190    128061.70    210971.30
   11152.180    130326.60    213646.20
   11158.190    131806.40    215372.10
   11164.210    132461.10    215743.90
   11170.260    133794.80    215755.60
   11176.320    136635.40    217638.30
   11182.410    139724.90    219597.90
   11188.510    140436.40    218726.50
   11194.630    141386.80    218580.10
   11200.770    143655.10    220677.50
   11206.930    145110.40    222275.00
   11213.110    146359.60    223315.40
   11219.310    147405.70    224481.70
   11225.530    149194.80    226533.00
   11231.770    150838.80    229219.20
   11238.020    150284.70    228457.40
   11244.290    150859.60    229402.50
   11250.590    152481.40    231600.60
   11256.900    153871.10    232672.70
   11263.230    155223.80    233151.60
   11269.580    157328.40    234082.60
   11275.950    159616.90    234901.50
   11282.340    162918.40    237220.30
   11288.750    164859.80    237529.10
   11295.170    166593.10    238411.80
   11301.620    167958.40    239095.50
   11308.080    169986.60    240777.10
