#XDI/1.1  GSE/1.0
# Column.1: energy eV
# Column.2: itrans
# Column.3: i0
# Scan.end_time: 2008-04-12 04:17:02
# Scan.start_time: 2008-04-12 04:02:44
# Element.symbol:  W
# Element.edge:  L3
# Facility.Name:  APS
# Beamline.Name:  13-BM-D
# Beamline.xray_source:  bending magnet
# Mono.d_spacing:  3.13555
# Mono.name: Si 111
# Beamline.Storage_Ring_Current: 101.246 || S:SRcurrentAI.VAL
# Beamline.FOE_Mono_angle_readback: 11.3377 || 13BMA:m17.RBV
# Beamline.Mono_Energy_drive_val: 10057.0000 || 13BMA:E:Energy.VAL
# Beamline.Mono_Energy_readback: 10052.0004 || 13BMA:E:E_RBV
# Beamline.Mono_Beam_Offset: 20.0000 || 13BMA:E:height.VAL
# Beamline.I0_sensitivity_value: 5 || 13BMD:A3sens_num.VAL
# Beamline.I0_sensitivity_value: nA/V || 13BMD:A3sens_unit.VAL
# Beamline.I1_sensitivity_value: 5 || 13BMD:A2sens_num.VAL
# Beamline.I1_sensitivity_value: nA/V || 13BMD:A2sens_unit.VAL
# Beamline.FOE_Mono_Yout: 10.5096 || 13BMA:m10.VAL
# Beamline.FOE_Mono_Yin: 10.7131 || 13BMA:m11.VAL
# Beamline.FOE_Mono_Yup: 9.7703 || 13BMA:m12.VAL
# Beamline.FOE_Mono_Cage_Y: 0.000 || 13BMA:m13.VAL
# Beamline.FOE_Mono_Z: 52.096 || 13BMA:m14.VAL
# Beamline.FOE_Mono_angle: 11.3376 || 13BMA:m17.VAL
# Beamline.BMD_Horiz_Width: 5.000 || 13BMD:BMDHt2.C
# Beamline.BMD_Horiz_Center: -2.000 || 13BMD:BMDHt2.D
# Beamline.BMD_Vertical_Width: 0.500 || 13BMD:BMDVt2.C
# Beamline.BMD_Vertical_Center: -19.950 || 13BMD:BMDVt2.D
# Beamline.Sample_X: 326.174 || 13BMD:m70.VAL
# Beamline.Sample_Z__focus: 85.000 || 13BMD:m33.VAL
# Beamline.Sample_Y__height: 34.000 || 13BMD:m34.VAL
# ScanParameters.Start: Scan.Member: Value
# ScanParameters.E0: 10207.0
# ScanParameters.Legend: Start       Stop       Step       Npts       Time   Kspace?
# ScanParameters.Region1: -150.00    -25.000     5.0000     26.000     1.0000   0
# ScanParameters.Region2: -25.000     30.000    0.25000     221.00     1.0000   0
# ScanParameters.Region3: 2.8061     17.000   0.049979     285.00     1.0000   1
# ScanParameters.End: here
#-------------------------
#  energy  itrans  i0
   10057.000    161316.20     79826.70 
   10062.000    160658.20     78889.70 
   10067.000    161043.20     78961.70 
   10072.000    160300.20     78395.70 
   10077.000    160751.20     78420.70 
   10082.000    161083.20     78277.70 
   10087.000    162378.20     78633.70 
   10092.000    163580.20     78956.70 
   10097.000    164613.20     79150.70 
   10102.000    164798.20     78955.70 
   10107.000    166598.20     79551.70 
   10112.000    167507.20     79727.70 
   10117.000    167699.20     79581.70 
   10122.000    167467.20     79250.70 
   10127.000    168243.20     79351.70 
   10132.000    169379.20     79707.70 
   10137.000    169582.20     79608.70 
   10142.000    169029.20     79216.70 
   10147.000    169410.20     79262.70 
   10152.000    170416.20     79645.70 
   10157.000    170142.20     79555.70 
   10162.000    169557.20     79392.70 
   10167.000    168962.20     79441.70 
   10172.000    168491.20     79752.70 
   10177.000    166218.20     79645.70 
   10182.000    161833.20     79261.70 
   10182.250    162059.20     79510.70 
   10182.500    162169.20     79686.70 
   10182.750    162246.20     79846.70 
   10183.000    162158.20     79917.70 
   10183.250    162130.20     80027.70 
   10183.500    161951.20     80102.70 
   10183.750    161624.20     80056.70 
   10184.000    161317.20     80011.70 
   10184.250    160797.20     79923.70 
   10184.500    160601.20     79964.70 
   10184.750    160220.20     79941.70 
   10185.000    159963.20     79979.70 
   10185.250    159625.20     79980.70 
   10185.500    159433.20     80057.70 
   10185.750    158967.20     80030.70 
   10186.000    158583.20     80042.70 
   10186.250    158309.20     80053.70 
   10186.500    157766.20     80013.70 
   10186.750    157305.20     79954.70 
   10187.000    156715.20     79892.70 
   10187.250    156496.20     79972.70 
   10187.500    155961.20     79945.70 
   10187.750    155445.20     79920.70 
   10188.000    154856.20     79895.70 
   10188.250    154488.20     79964.70 
   10188.500    153959.20     80015.70 
   10188.750    153303.20     79972.70 
   10189.000    152748.20     79961.70 
   10189.250    152066.20     79927.70 
   10189.500    151539.20     79951.70 
   10189.750    150801.20     79930.70 
   10190.000    149957.20     79836.70 
   10190.250    149220.20     79765.70 
   10190.500    148534.20     79807.70 
   10190.750    148024.20     79899.70 
   10191.000    147414.20     80027.70 
   10191.250    146598.20     80039.70 
   10191.500    145341.20     79863.70 
   10191.750    144712.20     79974.70 
   10192.000    143675.20     79921.70 
   10192.250    142757.20     79933.70 
   10192.500    141897.20     79934.70 
   10192.750    141008.20     80009.70 
   10193.000    140063.20     79944.70 
   10193.250    138869.20     79896.70 
   10193.500    137859.20     79874.70 
   10193.750    136451.20     79820.70 
   10194.000    135408.20     79863.70 
   10194.250    133962.20     79849.70 
   10194.500    132506.20     79890.70 
   10194.750    131203.20     79829.70 
   10195.000    129656.20     79838.70 
   10195.250    128298.20     79849.70 
   10195.500    126640.20     79896.70 
   10195.750    125088.20     79830.70 
   10196.000    123291.20     79887.70 
   10196.250    121854.20     79947.70 
   10196.500    119647.20     79913.70 
   10196.750    117512.20     79896.70 
   10197.000    115383.20     79820.70 
   10197.250    112951.20     79842.70 
   10197.500    110689.20     79818.70 
   10197.750    108014.20     79816.70 
   10198.000    105746.20     79895.70 
   10198.250    102807.20     79789.70 
   10198.500    100185.20     79805.70 
   10198.750     97165.20     79878.70 
   10199.000     93980.20     79891.70 
   10199.250     90973.20     79836.70 
   10199.500     87175.20     79779.70 
   10199.750     83933.20     79792.70 
   10200.000     79900.20     79756.70 
   10200.250     76101.20     79788.70 
   10200.500     71731.20     79734.70 
   10200.750     67924.20     79740.70 
   10201.000     63404.20     79778.70 
   10201.250     59700.20     79784.70 
   10201.500     55327.20     79787.70 
   10201.750     50755.20     79773.70 
   10202.000     46859.20     79708.70 
   10202.250     42504.20     80092.70 
   10202.500     38569.20     80035.70 
   10202.750     33764.20     80091.70 
   10203.000     30062.20     80108.70 
   10203.250     25562.20     80006.70 
   10203.500     22040.20     80156.70 
   10203.750     18187.20     80105.70 
   10204.000     15337.20     80086.70 
   10204.250     12317.20     80134.70 
   10204.500      9783.20     80106.70 
   10204.750      8034.20     80120.70 
   10205.000      6225.20     80060.70 
   10205.250      5079.20     80125.70 
   10205.500      3914.20     80164.70 
   10205.750      3161.20     80092.70 
   10206.000      2481.20     80039.70 
   10206.250      2041.20     80079.70 
   10206.500      1691.20     80037.70 
   10206.750      1488.20     80016.70 
   10207.000      1318.20     79990.70 
   10207.250      1227.20     79948.70 
   10207.500      1183.20     79986.70 
   10207.750      1178.20     79944.70 
   10208.000      1199.20     79936.70 
   10208.250      1266.20     79792.70 
   10208.500      1348.20     79667.70 
   10208.750      1485.20     79550.70 
   10209.000      1634.20     79472.70 
   10209.250      1878.20     79458.70 
   10209.500      2103.20     79775.70 
   10209.750      2431.20     80094.70 
   10210.000      2711.20     80410.70 
   10210.250      3061.20     80649.70 
   10210.500      3434.20     80759.70 
   10210.750      3741.20     80625.70 
   10211.000      4145.20     80465.70 
   10211.250      4490.20     80354.70 
   10211.500      4922.20     80217.70 
   10211.750      5321.20     80162.70 
   10212.000      5791.20     80026.70 
   10212.250      6203.20     79984.70 
   10212.500      6684.20     79972.70 
   10212.750      7077.20     79912.70 
   10213.000      7515.20     79847.70 
   10213.250      7887.20     79884.70 
   10213.500      8292.20     79901.70 
   10213.750      8618.20     79979.70 
   10214.000      8981.20     80032.70 
   10214.250      9311.20     79984.70 
   10214.500      9580.20     79993.70 
   10214.750      9860.20     79998.70 
   10215.000     10088.20     80017.70 
   10215.250     10338.20     79975.70 
   10215.500     10530.20     80009.70 
   10215.750     10729.20     80026.70 
   10216.000     10906.20     79999.70 
   10216.250     11066.20     79958.70 
   10216.500     11219.20     79927.70 
   10216.750     11383.20     79902.70 
   10217.000     11522.20     79902.70 
   10217.250     11691.20     79881.70 
   10217.500     11829.20     79855.70 
   10217.750     12007.20     79860.70 
   10218.000     12187.20     79821.70 
   10218.250     12353.20     79824.70 
   10218.500     12564.20     79885.70 
   10218.750     12741.20     79866.70 
   10219.000     12957.20     79945.70 
   10219.250     13147.20     79988.70 
   10219.500     13348.20     79980.70 
   10219.750     13542.20     79946.70 
   10220.000     13758.20     79899.70 
   10220.250     13957.20     79893.70 
   10220.500     14208.20     79916.70 
   10220.750     14395.20     79853.70 
   10221.000     14654.20     79819.70 
   10221.250     14875.20     79835.70 
   10221.500     15133.20     79878.70 
   10221.750     15356.20     79928.70 
   10222.000     15586.20     79871.70 
   10222.250     15787.20     79886.70 
   10222.500     16018.20     79818.70 
   10222.750     16228.20     79814.70 
   10223.000     16424.20     79887.70 
   10223.250     16631.20     79796.70 
   10223.500     16817.20     79847.70 
   10223.750     17011.20     79852.70 
   10224.000     17187.20     79912.70 
   10224.250     17380.20     79964.70 
   10224.500     17515.20     79933.70 
   10224.750     17658.20     79877.70 
   10225.000     17773.20     79873.70 
   10225.250     17888.20     79766.70 
   10225.500     18000.20     79757.70 
   10225.750     18146.20     79777.70 
   10226.000     18261.20     79728.70 
   10226.250     18498.20     80138.70 
   10226.500     18635.20     80103.70 
   10226.750     18819.20     80136.70 
   10227.000     18976.20     80145.70 
   10227.250     19184.20     80146.70 
   10227.500     19377.20     80163.70 
   10227.750     19585.20     80119.70 
   10228.000     19749.20     80111.70 
   10228.250     19920.20     80033.70 
   10228.500     20113.20     80063.70 
   10228.750     20236.20     80061.70 
   10229.000     20406.20     80063.70 
   10229.250     20548.20     80136.70 
   10229.500     20680.20     80114.70 
   10229.750     20778.20     80136.70 
   10230.000     20878.20     80102.70 
   10230.250     20941.20     80032.70 
   10230.500     21019.20     80028.70 
   10230.750     21095.20     80043.70 
   10231.000     21143.20     80047.70 
   10231.250     21180.20     80038.70 
   10231.500     21225.20     80073.70 
   10231.750     21240.20     80069.70 
   10232.000     21265.20     80075.70 
   10232.250     21257.20     80051.70 
   10232.500     21264.20     80037.70 
   10232.750     21288.20     80081.70 
   10233.000     21270.20     79983.70 
   10233.250     21285.20     79980.70 
   10233.500     21269.20     79940.70 
   10233.750     21302.20     79979.70 
   10234.000     21287.20     79949.70 
   10234.250     21303.20     79934.70 
   10234.500     21311.20     79897.70 
   10234.750     21293.20     79797.70 
   10235.000     21268.20     79648.70 
   10235.250     21339.20     79626.70 
   10235.500     21492.20     79683.70 
   10235.750     21636.20     79702.70 
   10236.000     21792.20     79780.70 
   10236.250     21943.20     80037.70 
   10236.500     22053.20     80232.70 
   10236.750     22118.20     80317.70 
   10237.000     22175.20     80301.70 
   10238.080     22342.17     80064.67 
   10239.180     22513.07     80071.60 
   10240.290     22434.90     79999.47 
   10241.430     22482.67     80195.30 
   10242.580     22455.37     80121.06 
   10243.750     22565.01     80115.79 
   10244.950     22826.58     80100.46 
   10246.160     23233.08     80057.08 
   10247.390     23747.52     80085.65 
   10248.640     24314.88     80079.16 
   10249.910     24814.19     80115.63 
   10251.190     25058.43     80066.05 
   10252.500     25066.60     80170.41 
   10253.830     24764.70     80241.73 
   10255.170     24252.74     80274.00 
   10256.540     23764.71     80427.21 
   10257.920     23211.62     80333.38 
   10259.320     22793.46     80429.48 
   10260.740     22464.23     80486.55 
   10262.180     22321.94     80546.56 
   10263.640     22389.58     80716.52 
   10265.120     22586.16     80764.43 
   10266.610     22823.66     80740.29 
   10268.130     23066.11     80832.10 
   10269.660     23315.48     80970.86 
   10271.220     23491.79     81051.56 
   10272.790     23640.04     81168.22 
   10274.380     23767.21     81333.83 
   10275.990     23827.32     81554.38 
   10277.630     23761.37     81555.88 
   10279.270     23623.34     81602.34 
   10280.940     23452.26     81747.74 
   10282.630     23244.10     81913.09 
   10284.340     23087.88     82079.40 
   10286.060     22971.59     82066.65 
   10287.810     23014.24     82156.84 
   10289.570     23273.82     82312.00 
   10291.350     23727.33     82446.09 
   10293.150     24279.78     82687.14 
   10294.970     24787.16     82867.14 
   10296.810     25157.48     82970.09 
   10298.670     25387.73     83191.98 
   10300.550     25377.91     83204.83 
   10302.450     25340.03     83473.63 
   10304.360     25271.07     83726.37 
   10306.300     25210.06     83812.06 
   10308.250     25254.98     83972.70 
   10310.220     25355.83     84213.30 
   10312.210     25458.61     84401.84 
   10314.220     25528.33     84608.33 
   10316.250     25496.98     84747.77 
   10318.300     25521.57     85206.16 
   10320.370     25453.09     85541.49 
   10322.460     25299.54     85590.78 
   10324.560     25212.93     85816.02 
   10326.690     25110.25     86087.20 
   10328.830     24974.50     86220.34 
   10331.000     24865.69     86536.42 
   10333.180     24795.81     86889.46 
   10335.380     24706.87     87178.44 
   10337.600     24703.86     87341.38 
   10339.840     24781.78     87515.26 
   10342.100     24963.63     87845.09 
   10344.380     25212.43     88114.87 
   10346.670     25636.15     88337.60 
   10348.990     26215.81     88521.27 
   10351.320     26843.40     88622.91 
   10353.670     27523.92     89080.48 
   10356.050     27993.38     89434.01 
   10358.440     28295.77     89725.48 
   10360.850     28520.10     90047.91 
   10363.280     28585.36     90116.29 
   10365.730     28698.55     90667.61 
   10368.190     28671.68     90733.88 
   10370.680     28768.74     91038.11 
   10373.190     28884.74     91196.28 
   10375.710     29006.66     91495.40 
   10378.250     29114.53     91891.48 
   10380.820     29226.32     92296.49 
   10383.400     29331.05     92658.46 
   10386.000     29461.71     93088.38 
   10388.620     29385.31     93417.25 
   10391.260     29038.84     93717.06 
   10393.920     28384.31     93789.84 
   10396.590     27711.71     94092.55 
   10399.290     27135.04     94536.21 
   10402.010     26725.30     94751.83 
   10404.740     26790.50     95194.39 
   10407.490     27389.63     95703.91 
   10410.260     28472.70     95867.37 
   10413.060     30124.70     96564.78 
   10415.870     31538.63     96704.14 
   10418.700     32506.50     97012.45 
   10421.540     33022.30     97358.71 
   10424.410     33026.04     97440.92 
   10427.300     32951.71     97900.08 
   10430.200     32868.31     98381.19 
   10433.130     32944.84     98924.24 
   10436.070     33111.32     99304.25 
   10439.030     33207.72     99625.20 
   10442.010     32851.05     98905.11 
   10445.020     33204.33    100818.00 
   10448.040     32917.53    101052.80 
   10451.070     32850.67    101457.50 
   10454.130     32958.74    101711.20 
   10457.210     33107.75    101999.90 
   10460.300     33201.69    102325.50 
   10463.420     33151.56    102644.00 
   10466.550     33096.37    103048.50 
   10469.710     33155.11    103624.00 
   10472.880     33239.78    104161.40 
   10476.070     33383.39    104713.70 
   10479.280     33710.93    105375.00 
   10482.510     34086.41    105548.30 
   10485.750     34719.82    105842.50 
   10489.020     35501.16    106186.60 
   10492.310     36187.43    106524.70 
   10495.610     36779.64    106967.70 
   10498.940     37417.79    107710.70 
   10502.280     38030.87    108346.70 
   10505.640     38512.88    108823.60 
   10509.020     38670.82    109179.40 
   10512.420     38653.70    109542.20 
   10515.840     38657.51    110027.90 
   10519.280     38711.26    110695.60 
   10522.740     38582.94    110950.30 
   10526.220     38594.55    111538.80 
   10529.710     38390.10    111699.40 
   10533.230     38358.58    112176.90 
   10536.760     38407.00    112731.30 
   10540.310     38729.34    113724.70 
   10543.880     38981.63    114242.00 
   10547.470     39550.84    115219.30 
   10551.080     40272.99    116274.50 
   10554.710     40731.07    116379.70 
   10558.360     41209.09    116425.80 
   10562.030     41991.04    117645.90 
   10565.710     42272.93    117724.90 
   10569.420     42389.74    117523.90 
   10573.140     43138.50    118604.80 
   10576.880     43938.18    119525.70 
   10580.650     44606.80    120042.50 
   10584.430     45103.35    120620.30 
   10588.230     45318.84    121224.00 
   10592.050     45481.26    122043.70 
   10595.880     45625.61    122643.30 
   10599.740     45745.90    122869.90 
   10603.620     45803.12    122887.40 
   10607.510     45971.28    123322.90 
   10611.430     46401.37    124456.30 
   10615.360     46730.39    125345.70 
   10619.310     47054.34    125939.00 
   10623.280     47454.23    126456.30 
   10627.270     47854.06    126982.50 
   10631.280     48101.82    127240.70 
   10635.310     48142.50    127277.80 
   10639.360     48457.13    128029.90 
   10643.420     48909.69    128935.90 
   10647.510     49399.18    129568.80 
   10651.610     50083.61    130380.80 
   10655.740     51081.96    131868.60 
   10659.880     51666.26    132199.40 
   10664.040     52272.48    132762.20 
   10668.220     52656.64    132916.90 
   10672.420     53123.74    133167.60 
   10676.640     53734.77    133974.20 
   10680.880     54432.73    135051.70 
   10685.140     54840.63    135612.20 
   10689.410     55403.45    136492.70 
   10693.710     56038.22    137205.10 
   10698.020     56496.91    137561.50 
   10702.350     56739.54    138028.80 
   10706.710     56720.11    138351.00 
   10711.080     57081.61    139280.20 
   10715.470     57760.04    140694.40 
   10719.880     58366.40    141729.50 
   10724.300     58799.70    142051.50 
   10728.750     59263.93    142573.50 
   10733.220     59648.10    143227.50 
   10737.700     59993.20    143911.40 
   10742.210     60319.23    144374.20 
   10746.730     60844.20    145114.00 
   10751.270     61577.10    145897.80 
   10755.830     62178.93    146262.50 
   10760.410     62751.70    146904.10 
   10765.010     63189.41    147919.70 
   10769.630     63536.04    149101.30 
   10774.270     63857.61    150000.80 
   10778.930     64444.11    150726.20 
   10783.600     65355.55    150910.60 
   10788.290     66702.92    151454.90 
   10793.010     68140.23    151960.20 
   10797.740     68969.46    152098.50 
   10802.490     70251.63    153712.60 
   10807.260     71170.74    154737.80 
   10812.050     71793.78    155312.90 
   10816.860     73243.75    158475.90 
   10821.690     73232.66    158718.90 
   10826.540     73317.50    159280.80 
   10831.400     72998.27    159275.70 
   10836.290     72942.98    159770.50 
   10841.190     72590.63    160029.30 
   10846.110     72988.20    161085.10 
   10851.060     73889.70    162456.80 
   10856.020     75556.15    164582.40 
   10861.000     76358.52    164638.00 
   10866.000     77269.84    165005.50 
   10871.010     77704.08    164902.00 
   10876.050     78436.26    165774.40 
   10881.110     79130.37    166921.80 
   10886.180     78594.41    166162.10 
   10891.280     81237.39    170175.40 
   10896.390     82355.30    171278.60 
   10901.520     82989.15    171206.80 
   10906.670     83998.92    171144.90 
   10911.850     85961.64    172531.00 
   10917.040     87291.29    173180.00 
   10922.240     88282.87    174010.00 
   10927.470     89648.38    175551.90 
   10932.720     90757.83    176700.80 
   10937.980     91359.21    177418.60 
   10943.270     91627.52    177736.40 
   10948.570     91962.77    178148.10 
   10953.890     91829.95    177873.80 
   10959.240     92840.07    179644.40 
   10964.600     93505.13    181500.90 
   10969.980     93205.11    181519.50 
   10975.380     93147.02    182112.90 
   10980.790     93347.88    182869.30 
   10986.230     94361.66    184622.70 
   10991.690     96366.38    186850.00 
   10997.160     97202.03    185357.30 
   11002.650     99814.62    188733.50 
   11008.170    100478.10    188198.70 
   11013.700    101501.60    188969.80 
   11019.250    102509.00    189926.80 
   11024.820    104180.30    191731.80 
   11030.410    106120.60    193063.80 
   11036.020    107454.70    193301.70 
   11041.640    109266.90    194094.60 
   11047.290    110554.90    194709.40 
   11052.960    111364.90    194853.10 
   11058.640    112646.80    195863.80 
   11064.340    113582.70    196510.50 
   11070.070    114853.50    198562.10 
   11075.810    115983.20    200470.60 
   11081.570    115695.90    200401.10 
   11087.350    115620.50    200849.60 
   11093.150    116747.00    203564.00 
   11098.960    117141.40    204661.30 
   11104.800    117812.80    204754.60 
   11110.660    119258.20    205849.90 
   11116.530    120471.40    206254.10 
   11122.420    123059.60    208842.30 
   11128.340    125024.70    209943.30 
   11134.270    126760.80    211155.40 
   11140.220    128059.80    212032.40 
   11146.190    128545.70    211914.30 
   11152.180    129635.60    212754.20 
   11158.190    131586.40    215238.10 
   11164.210    132367.10    215842.90 
   11170.260    134447.80    217025.60 
   11176.320    136354.40    217441.30 
   11182.410    137558.90    216632.90 
   11188.510    139861.40    218072.50 
   11194.630    143154.80    221382.10 
   11200.770    145463.10    223604.50 
   11206.930    145114.40    222563.00 
   11213.110    146310.60    223415.40 
   11219.310    147619.70    224854.70 
   11225.530    149095.80    226611.00 
   11231.770    148523.80    226203.20 
   11238.020    148531.70    226193.40 
   11244.290    150884.60    229701.50 
   11250.590    150930.40    229496.60 
   11256.900    152535.10    230963.70 
   11263.230    153886.80    231515.60 
   11269.580    156812.40    233658.60 
   11275.950    159096.90    234523.50 
   11282.340    160634.40    234254.30 
   11288.750    162458.80    234578.10 
   11295.170    165700.10    237460.80 
   11301.620    167831.40    239134.50 
   11308.080    169360.60    240403.10 
