#XDI/1.1  GSE/1.0
# Column.1: energy eV
# Column.2: itrans
# Column.3: i0
# Scan.end_time: 2008-04-12 06:57:27
# Scan.start_time: 2008-04-12 06:43:08
# Element.symbol:  W
# Element.edge:  L3
# Mono.d_spacing:  3.13555
# Mono.name: Si 111
# Sample.temperature: room temperature
# Sample.formula: W metal
# Sample.name: W
# Sample.prep: powder on tape, many layers
# Facility.Name:  APS
# Beamline.Name:  13-BM-D
# Beamline.xray_source:  bending magnet
# Beamline.Storage_Ring_Current: 101.246
# Beamline.I0: 5 nA/V
# Beamline.I1: 5 nA/V
# ScanParameters.E0: 10207.0
# ScanParameters.Legend: Start       Stop       Step       Npts       Time   Kspace?
# ScanParameters.Region1: -150.00    -25.000     5.0000     26.000     1.0000   0
# ScanParameters.Region2: -25.000     30.000    0.25000     221.00     1.0000   0
# ScanParameters.Region3: 2.8061     17.000   0.049979     285.00     1.0000   1
#-------------------------
#  energy  itrans  i0
   10057.000    163630.20     81005.70
   10062.000    163370.20     80216.70
   10067.000    163542.20     80210.70
   10072.000    162683.20     79659.70
   10077.000    163778.20     79903.70
   10082.000    164312.20     79908.70
   10087.000    165564.20     80198.70
   10092.000    166466.20     80355.70
   10097.000    167039.20     80329.70
   10102.000    166727.20     79917.70
   10107.000    167184.20     79885.70
   10112.000    167479.20     79737.70
   10117.000    168030.20     79774.70
   10122.000    167727.20     79406.70
   10127.000    168570.20     79554.70
   10132.000    170369.20     80152.70
   10137.000    170623.20     80115.70
   10142.000    170360.20     79844.70
   10147.000    170628.20     79874.70
   10152.000    171588.20     80234.70
   10157.000    171322.20     80127.70
   10162.000    170533.20     79877.70
   10167.000    170015.20     79937.70
   10172.000    169159.20     80103.70
   10177.000    166982.20     80075.70
   10182.000    162651.20     79697.70
   10182.250    162782.20     79937.70
   10182.500    162738.20     80041.70
   10182.750    162842.20     80217.70
   10183.000    162788.20     80339.70
   10183.250    162604.20     80365.70
   10183.500    162399.20     80398.70
   10183.750    162218.20     80425.70
   10184.000    161947.20     80415.70
   10184.250    161570.20     80400.70
   10184.500    161317.20     80386.70
   10184.750    160830.20     80342.70
   10185.000    160550.20     80339.70
   10185.250    160054.20     80289.70
   10185.500    159815.20     80355.70
   10185.750    159386.20     80326.70
   10186.000    159023.20     80328.70
   10186.250    158674.20     80350.70
   10186.500    158202.20     80321.70
   10186.750    157992.20     80384.70
   10187.000    157423.20     80339.70
   10187.250    157258.20     80426.70
   10187.500    156618.20     80380.70
   10187.750    155986.20     80301.70
   10188.000    155457.20     80317.70
   10188.250    154893.20     80326.70
   10188.500    154394.20     80324.70
   10188.750    153760.20     80308.70
   10189.000    153248.20     80320.70
   10189.250    152576.20     80281.70
   10189.500    151928.20     80256.70
   10189.750    151041.20     80172.70
   10190.000    150243.20     80104.70
   10190.250    149679.20     80119.70
   10190.500    148992.20     80160.70
   10190.750    148498.20     80271.70
   10191.000    147839.20     80413.70
   10191.250    146981.20     80369.70
   10191.500    146035.20     80341.70
   10191.750    145298.20     80372.70
   10192.000    144300.20     80365.70
   10192.250    143208.20     80333.70
   10192.500    142294.20     80287.70
   10192.750    141274.20     80262.70
   10193.000    140369.20     80284.70
   10193.250    139211.20     80241.70
   10193.500    138220.20     80256.70
   10193.750    136966.20     80277.70
   10194.000    135892.20     80280.70
   10194.250    134391.20     80256.70
   10194.500    132766.20     80173.70
   10194.750    131456.20     80142.70
   10195.000    129914.20     80195.70
   10195.250    128543.20     80224.70
   10195.500    126846.20     80236.70
   10195.750    125389.20     80224.70
   10196.000    123565.20     80266.70
   10196.250    121945.20     80233.70
   10196.500    119772.20     80204.70
   10196.750    117541.20     80192.70
   10197.000    115508.20     80170.70
   10197.250    113006.20     80157.70
   10197.500    111281.20     80538.70
   10197.750    108603.20     80535.70
   10198.000    106166.20     80569.70
   10198.250    103372.20     80633.70
   10198.500    100695.20     80624.70
   10198.750     97577.20     80663.70
   10199.000     94324.20     80657.70
   10199.250     91312.20     80583.70
   10199.500     87405.20     80588.70
   10199.750     84130.20     80512.70
   10200.000     79847.20     80478.70
   10200.250     76110.20     80487.70
   10200.500     71763.20     80536.70
   10200.750     67859.20     80524.70
   10201.000     63280.20     80512.70
   10201.250     59595.20     80585.70
   10201.500     55001.20     80530.70
   10201.750     50507.20     80493.70
   10202.000     46626.20     80507.70
   10202.250     41984.20     80532.70
   10202.500     38126.20     80534.70
   10202.750     33214.20     80450.70
   10203.000     29578.20     80486.70
   10203.250     24979.20     80467.70
   10203.500     21604.20     80505.70
   10203.750     17758.20     80538.70
   10204.000     14948.20     80518.70
   10204.250     11984.20     80513.70
   10204.500      9470.20     80467.70
   10204.750      7803.20     80496.70
   10205.000      6024.20     80471.70
   10205.250      4918.20     80499.70
   10205.500      3775.20     80389.70
   10205.750      3049.20     80378.70
   10206.000      2384.20     80409.70
   10206.250      1980.20     80338.70
   10206.500      1649.20     80411.70
   10206.750      1458.20     80381.70
   10207.000      1299.20     80394.70
   10207.250      1210.20     80367.70
   10207.500      1176.20     80318.70
   10207.750      1175.20     80263.70
   10208.000      1201.20     80246.70
   10208.250      1273.20     80231.70
   10208.500      1358.20     80129.70
   10208.750      1502.20     79915.70
   10209.000      1654.20     79914.70
   10209.250      1903.20     79839.70
   10209.500      2131.20     80005.70
   10209.750      2469.20     80410.70
   10210.000      2753.20     80741.70
   10210.250      3110.20     81013.70
   10210.500      3487.20     81092.70
   10210.750      3792.20     81024.70
   10211.000      4199.20     80855.70
   10211.250      4549.20     80693.70
   10211.500      4991.20     80597.70
   10211.750      5387.20     80527.70
   10212.000      5850.20     80471.70
   10212.250      6273.20     80413.70
   10212.500      6748.20     80332.70
   10212.750      7139.20     80311.70
   10213.000      7585.20     80279.70
   10213.250      7956.20     80346.70
   10213.500      8350.20     80293.70
   10213.750      8672.20     80361.70
   10214.000      9040.20     80362.70
   10214.250      9362.20     80385.70
   10214.500      9619.20     80352.70
   10214.750      9908.20     80320.70
   10215.000     10128.20     80287.70
   10215.250     10377.20     80278.70
   10215.500     10555.20     80254.70
   10215.750     10764.20     80342.70
   10216.000     10922.20     80252.70
   10216.250     11102.20     80263.70
   10216.500     11262.20     80275.70
   10216.750     11422.20     80211.70
   10217.000     11547.20     80197.70
   10217.250     11723.20     80203.70
   10217.500     11869.20     80233.70
   10217.750     12054.20     80258.70
   10218.000     12247.20     80283.70
   10218.250     12410.20     80269.70
   10218.500     12602.20     80238.70
   10218.750     12788.20     80261.70
   10219.000     13002.20     80287.70
   10219.250     13206.20     80400.70
   10219.500     13395.20     80278.70
   10219.750     13602.20     80360.70
   10220.000     13827.20     80336.70
   10220.250     14013.20     80274.70
   10220.500     14245.20     80178.70
   10220.750     14465.20     80261.70
   10221.000     14694.20     80154.70
   10221.250     14918.20     80143.70
   10221.500     15179.20     80236.70
   10221.750     15394.20     80222.70
   10222.000     15628.20     80163.70
   10222.250     15825.20     80187.70
   10222.500     16094.20     80273.70
   10222.750     16301.20     80257.70
   10223.000     16482.20     80246.70
   10223.250     16720.20     80306.70
   10223.500     16891.20     80300.70
   10223.750     17086.20     80292.70
   10224.000     17230.20     80226.70
   10224.250     17388.20     80133.70
   10224.500     17532.20     80170.70
   10224.750     17700.20     80172.70
   10225.000     17812.20     80173.70
   10225.250     17956.20     80176.70
   10225.500     18066.20     80134.70
   10225.750     18215.20     80116.70
   10226.000     18344.20     80213.70
   10226.250     18486.20     80187.70
   10226.500     18622.20     80178.70
   10226.750     18824.20     80223.70
   10227.000     18984.20     80203.70
   10227.250     19198.20     80255.70
   10227.500     19359.20     80189.70
   10227.750     19559.20     80138.70
   10228.000     19724.20     80137.70
   10228.250     19912.20     80109.70
   10228.500     20058.20     80012.70
   10228.750     20209.20     80052.70
   10229.000     20366.20     80031.70
   10229.250     20480.20     80047.70
   10229.500     20629.20     80076.70
   10229.750     20737.20     80113.70
   10230.000     20853.20     80160.70
   10230.250     20934.20     80159.70
   10230.500     21017.20     80162.70
   10230.750     21065.20     80128.70
   10231.000     21092.20     80039.70
   10231.250     21115.20     80019.70
   10231.500     21149.20     80042.70
   10231.750     21182.20     80012.70
   10232.000     21187.20     80004.70
   10232.250     21198.20     80017.70
   10232.500     21218.20     80034.70
   10232.750     21220.20     80042.70
   10233.000     21220.20     80025.70
   10233.250     21223.20     80008.70
   10233.500     21223.20     80034.70
   10233.750     21252.20     80055.70
   10234.000     21269.20     80046.70
   10234.250     21261.20     79960.70
   10234.500     21263.20     79926.70
   10234.750     21236.20     79814.70
   10235.000     21224.20     79643.70
   10235.250     21294.20     79653.70
   10235.500     21436.20     79593.70
   10235.750     21583.20     79673.70
   10236.000     21784.20     79885.70
   10236.250     21897.20     80031.70
   10236.500     22000.20     80185.70
   10236.750     22046.20     80269.70
   10237.000     22098.20     80249.70
   10238.080     22311.17     80102.67
   10239.180     22487.07     80206.60
   10240.290     22414.90     80160.47
   10241.430     22467.67     80311.30
   10242.580     22437.37     80243.06
   10243.750     22524.01     80137.79
   10244.950     22773.58     80064.46
   10246.160     23198.08     80035.08
   10247.390     23711.52     80077.65
   10248.640     24276.88     80125.16
   10249.910     24793.19     80213.63
   10251.190     25044.43     80209.05
   10252.500     24998.60     80185.41
   10253.830     24668.70     80188.73
   10255.170     24143.74     80232.00
   10256.540     23657.71     80335.21
   10257.920     23147.62     80359.38
   10259.320     22751.46     80496.48
   10260.740     22433.23     80556.55
   10262.180     22303.94     80664.56
   10263.640     22345.58     80729.52
   10265.120     22552.16     80847.43
   10266.610     22807.66     80820.29
   10268.130     23057.11     80862.10
   10269.660     23287.48     81055.86
   10271.220     23470.79     81158.56
   10272.790     23616.04     81251.22
   10274.380     23710.21     81338.83
   10275.990     23758.32     81508.38
   10277.630     23721.37     81548.88
   10279.270     23584.34     81689.34
   10280.940     23427.26     81795.74
   10282.630     23247.10     82061.09
   10284.340     23106.88     82330.40
   10286.060     23058.59     82539.65
   10287.810     23124.24     82749.84
   10289.570     23412.82     82961.00
   10291.350     23885.33     83116.09
   10293.150     24404.78     83228.14
   10294.970     24903.16     83357.14
   10296.810     25264.48     83487.09
   10298.670     25476.73     83603.98
   10300.550     25536.91     83858.83
   10302.450     25482.03     84042.63
   10304.360     25347.07     84125.37
   10306.300     25299.06     84283.06
   10308.250     25348.98     84444.70
   10310.220     25416.83     84536.30
   10312.210     25554.61     84836.84
   10314.220     25590.33     84956.33
   10316.250     25608.98     85279.77
   10318.300     25583.57     85532.16
   10320.370     25461.09     85758.49
   10322.460     25337.54     85855.78
   10324.560     25248.93     86098.02
   10326.690     25136.25     86334.20
   10328.830     25048.50     86694.34
   10331.000     24911.69     86848.42
   10333.180     24773.81     86977.46
   10335.380     24626.87     87044.44
   10337.600     24634.86     87280.38
   10339.840     24742.78     87530.26
   10342.100     24891.63     87757.09
   10344.380     25156.43     88025.87
   10346.670     25574.15     88276.60
   10348.990     26202.81     88596.27
   10351.320     26923.40     89032.91
   10353.670     27517.92     89218.48
   10356.050     27942.38     89435.01
   10358.440     28203.77     89637.48
   10360.850     28384.10     89825.91
   10363.280     28415.36     89791.29
   10365.730     28577.55     90450.61
   10368.190     28631.68     90784.88
   10370.680     28672.74     90910.11
   10373.190     28826.74     91195.28
   10375.710     28965.66     91593.40
   10378.250     29038.53     91830.48
   10380.820     29130.32     92191.49
   10383.400     29219.05     92475.46
   10386.000     29291.71     92744.38
   10388.620     29232.31     93082.25
   10391.260     28860.84     93309.06
   10393.920     28311.31     93751.84
   10396.590     27680.71     94125.55
   10399.290     27074.04     94487.21
   10402.010     26791.30     95103.83
   10404.740     26782.50     95299.39
   10407.490     27331.63     95603.91
   10410.260     28349.70     95552.37
   10413.060     29995.70     96243.78
   10415.870     31424.63     96461.14
   10418.700     32366.50     96697.45
   10421.540     32925.30     97229.71
   10424.410     33123.04     97890.92
   10427.300     32993.71     98222.08
   10430.200     32910.31     98606.19
   10433.130     32882.84     98850.24
   10436.070     32982.32     99057.25
   10439.030     33085.72     99370.20
   10442.010     32795.05     98888.11
   10445.020     33247.33    101153.00
   10448.040     32933.53    101287.80
   10451.070     32804.67    101507.50
   10454.130     32906.74    101765.20
   10457.210     33117.75    102179.90
   10460.300     33181.69    102433.50
   10463.420     33167.56    102807.00
   10466.550     33112.37    103227.50
   10469.710     33128.11    103725.00
   10472.880     33191.78    104151.40
   10476.070     33208.39    104337.70
   10479.280     33551.93    104979.00
   10482.510     33987.41    105366.30
   10485.750     34705.82    105918.50
   10489.020     35514.16    106367.60
   10492.310     36273.43    106905.70
   10495.610     36832.64    107288.70
   10498.940     37570.79    108278.70
   10502.280     38142.87    108749.70
   10505.640     38485.88    108924.60
   10509.020     38787.82    109605.40
   10512.420     38779.70    110059.20
   10515.840     38724.51    110426.90
   10519.280     38855.26    111215.60
   10522.740     38727.94    111488.30
   10526.220     38771.55    112230.80
   10529.710     38663.10    112631.40
   10533.230     38611.58    113027.90
   10536.760     38658.00    113502.30
   10540.310     38939.34    114453.70
   10543.880     39123.63    114764.00
   10547.470     39421.84    114952.30
   10551.080     39847.99    115217.50
   10554.710     40564.07    116034.70
   10558.360     41083.09    116186.80
   10562.030     41889.04    117493.90
   10565.710     42364.93    118090.90
   10569.420     42604.74    118163.90
   10573.140     43439.50    119475.80
   10576.880     43958.18    119620.70
   10580.650     44480.80    119808.50
   10584.430     44922.35    120287.30
   10588.230     45100.84    120735.00
   10592.050     45085.26    121033.70
   10595.880     45289.61    121848.30
   10599.740     45589.90    122582.90
   10603.620     46046.12    123641.40
   10607.510     46373.28    124465.90
   10611.430     46343.37    124482.30
   10615.360     46557.39    124995.70
   10619.310     46846.34    125499.00
   10623.280     47284.23    126063.30
   10627.270     47796.06    126892.50
   10631.280     48252.82    127725.70
   10635.310     48657.50    128693.80
   10639.360     48876.13    129212.90
   10643.420     49259.69    129924.90
   10647.510     49662.18    130321.80
   10651.610     50312.61    131016.80
   10655.740     50780.96    131117.60
   10659.880     51332.26    131357.40
   10664.040     51982.48    132083.20
   10668.220     52734.64    133126.90
   10672.420     53476.74    134111.60
   10676.640     54062.77    134809.20
   10680.880     54449.73    135093.70
   10685.140     54889.63    135796.20
   10689.410     55446.45    136640.70
   10693.710     56041.22    137211.10
   10698.020     56464.91    137500.50
   10702.350     56577.54    137844.80
   10706.710     56690.11    138426.00
   10711.080     57016.61    139245.20
   10715.470     57796.04    140848.40
   10719.880     58374.40    141768.50
   10724.300     58766.70    142097.50
   10728.750     59189.93    142523.50
   10733.220     59597.10    143253.50
   10737.700     60006.20    144096.40
   10742.210     60277.23    144406.20
   10746.730     60661.20    144807.00
   10751.270     61394.10    145558.80
   10755.830     62656.93    147524.50
   10760.410     63503.70    148779.10
   10765.010     63634.41    149093.70
   10769.630     63388.04    148949.30
   10774.270     63807.61    149992.80
   10778.930     64542.11    150996.20
   10783.600     65788.55    151968.60
   10788.290     67466.92    153278.90
   10793.010     69032.23    154015.20
   10797.740     70211.46    154887.50
   10802.490     70697.63    154677.60
   10807.260     71321.74    155188.80
   10812.050     71193.78    154170.90
   10816.860     72446.75    156896.90
   10821.690     72428.66    157118.90
   10826.540     72747.50    158152.80
   10831.400     73155.27    159635.70
   10836.290     73603.98    161378.50
   10841.190     73557.63    162178.30
   10846.110     73307.20    161890.10
   10851.060     73690.70    162163.80
   10856.020     74214.15    161893.40
   10861.000     75581.52    163139.00
   10866.000     77238.84    165019.50
   10871.010     78524.08    166756.00
   10876.050     79309.26    167684.40
   10881.110     79428.37    167710.80
   10886.180     79026.41    167356.10
   10891.280     80924.39    169625.40
   10896.390     81248.30    168999.60
   10901.520     82668.15    170579.80
   10906.670     84183.92    171591.90
   10911.850     85894.64    172389.00
   10917.040     87133.29    172968.00
   10922.240     88390.87    174225.00
   10927.470     89502.38    175417.90
   10932.720     90463.83    176235.80
   10937.980     91131.21    177121.60
   10943.270     91118.52    176876.40
   10948.570     91497.77    177406.10
   10953.890     91942.95    178166.80
   10959.240     92983.07    180104.40
   10964.600     93315.13    181198.90
   10969.980     93010.11    181292.50
   10975.380     93005.02    181925.90
   10980.790     93630.88    183430.30
   10986.230     94643.66    185257.70
   10991.690     95720.38    185702.00
   10997.160     96516.03    184328.30
   11002.650     99621.62    188308.50
   11008.170    100245.10    187825.70
   11013.700    101585.60    189253.80
   11019.250    103133.00    191178.80
   11024.820    104681.30    192668.80
   11030.410    106535.60    193885.80
   11036.020    107778.70    193869.70
   11041.640    109321.90    194239.60
   11047.290    110316.90    194346.40
   11052.960    112311.90    196375.10
   11058.640    113625.80    197511.80
   11064.340    114914.70    198672.50
   11070.070    115260.50    199340.10
   11075.810    116339.20    200987.60
   11081.570    116562.90    201783.10
   11087.350    116276.50    201869.60
   11093.150    115907.00    202116.00
   11098.960    116604.40    203782.30
   11104.800    117623.80    204473.60
   11110.660    119385.20    206035.90
   11116.530    120681.40    206519.10
   11122.420    122319.60    207691.30
   11128.340    123821.70    208058.30
   11134.270    126244.80    210409.40
   11140.220    128550.80    212814.40
   11146.190    129359.70    213290.30
   11152.180    129571.60    212786.20
   11158.190    130324.40    213358.10
   11164.210    131749.10    214876.90
   11170.260    134346.80    216961.60
   11176.320    135808.40    216763.30
   11182.410    137668.90    216941.90
   11188.510    140671.40    219502.50
   11194.630    143425.80    221956.10
   11200.770    144214.10    221859.50
   11206.930    144303.40    221485.00
   11213.110    146431.60    223773.40
   11219.310    147613.70    225164.70
   11225.530    148045.80    225221.00
   11231.770    147911.80    225392.20
   11238.020    149148.70    227182.40
   11244.290    150940.60    229832.50
   11250.590    150253.40    228603.60
   11256.900    151905.10    230129.70
   11263.230    154534.80    232525.60
   11269.580    157520.40    234762.60
   11275.950    158991.90    234452.50
   11282.340    161443.40    235507.30
   11288.750    164500.80    237630.10
   11295.170    166616.10    238874.80
   11301.620    168176.40    239852.50
   11308.080    169386.60    240582.10
