#XDI/1.1  GSE/1.0
# Column.1: energy eV
# Column.2: itrans
# Column.3: i0
# Scan.end_time: 2008-04-12 09:23:14
# Scan.start_time: 2008-04-12 09:08:55
# Element.symbol:  W
# Element.edge:  L3
# Facility.Name:  APS
# Beamline.Name:  13-BM-D
# Beamline.xray_source:  bending magnet
# Mono.d_spacing:  3.13555
# Mono.name: Si 111
# Beamline.Storage_Ring_Current: 102.038 || S:SRcurrentAI.VAL
# Beamline.FOE_Mono_angle_readback: 11.3378 || 13BMA:m17.RBV
# Beamline.Mono_Energy_drive_val: 10057.0000 || 13BMA:E:Energy.VAL
# Beamline.Mono_Energy_readback: 10052.0004 || 13BMA:E:E_RBV
# Beamline.Mono_Beam_Offset: 20.0000 || 13BMA:E:height.VAL
# Beamline.I0_sensitivity_value: 5 || 13BMD:A3sens_num.VAL
# Beamline.I0_sensitivity_value: nA/V || 13BMD:A3sens_unit.VAL
# Beamline.I1_sensitivity_value: 5 || 13BMD:A2sens_num.VAL
# Beamline.I1_sensitivity_value: nA/V || 13BMD:A2sens_unit.VAL
# Beamline.FOE_Mono_Yout: 10.5096 || 13BMA:m10.VAL
# Beamline.FOE_Mono_Yin: 10.7131 || 13BMA:m11.VAL
# Beamline.FOE_Mono_Yup: 9.7703 || 13BMA:m12.VAL
# Beamline.FOE_Mono_Cage_Y: 0.000 || 13BMA:m13.VAL
# Beamline.FOE_Mono_Z: 52.096 || 13BMA:m14.VAL
# Beamline.FOE_Mono_angle: 11.3376 || 13BMA:m17.VAL
# Beamline.BMD_Horiz_Width: 5.000 || 13BMD:BMDHt2.C
# Beamline.BMD_Horiz_Center: -2.000 || 13BMD:BMDHt2.D
# Beamline.BMD_Vertical_Width: 0.500 || 13BMD:BMDVt2.C
# Beamline.BMD_Vertical_Center: -19.950 || 13BMD:BMDVt2.D
# Beamline.Sample_X: 326.174 || 13BMD:m70.VAL
# Beamline.Sample_Z__focus: 60.500 || 13BMD:m33.VAL
# Beamline.Sample_Y__height: 34.000 || 13BMD:m34.VAL
# ScanParameters.Start: Scan.Member: Value
# ScanParameters.E0: 10207.0
# ScanParameters.Legend: Start       Stop       Step       Npts       Time   Kspace?
# ScanParameters.Region1: -150.00    -25.000     5.0000     26.000     1.0000   0
# ScanParameters.Region2: -25.000     30.000    0.25000     221.00     1.0000   0
# ScanParameters.Region3: 2.8061     17.000   0.049979     285.00     1.0000   1
# ScanParameters.End: here
#-------------------------
#  energy  itrans  i0
   10057.000    171576.20     80425.70 
   10062.000    170948.20     80346.70 
   10067.000    170088.20     79343.70 
   10072.000    170545.20     79191.70 
   10077.000    171255.20     79351.70 
   10082.000    171792.20     79281.70 
   10087.000    172972.20     79564.70 
   10092.000    174601.20     80038.70 
   10097.000    175374.20     80154.70 
   10102.000    175292.20     79852.70 
   10107.000    175882.20     79827.70 
   10112.000    176546.20     79935.70 
   10117.000    176797.20     79793.70 
   10122.000    176111.20     79280.70 
   10127.000    176691.20     79341.70 
   10132.000    178200.20     79802.70 
   10137.000    178344.20     79670.70 
   10142.000    177828.20     79308.70 
   10147.000    178507.20     79478.70 
   10152.000    179127.20     79704.70 
   10157.000    179092.20     79660.70 
   10162.000    178209.20     79332.70 
   10167.000    178150.20     79547.70 
   10172.000    178113.20     79932.70 
   10177.000    176089.20     79801.70 
   10182.000    172265.20     79394.70 
   10182.250    172853.20     79640.70 
   10182.500    173100.20     79844.70 
   10182.750    172977.20     79876.70 
   10183.000    172963.20     79975.70 
   10183.250    172920.20     80022.70 
   10183.500    172700.20     80027.70 
   10183.750    172624.20     80115.70 
   10184.000    172282.20     80078.70 
   10184.250    172064.20     80065.70 
   10184.500    171823.20     80063.70 
   10184.750    171587.20     80082.70 
   10185.000    171366.20     80079.70 
   10185.250    170823.20     79984.70 
   10185.500    170743.20     80058.70 
   10185.750    170337.20     80020.70 
   10186.000    170069.20     80032.70 
   10186.250    169903.20     80092.70 
   10186.500    169361.20     80027.70 
   10186.750    169092.20     80035.70 
   10187.000    168581.20     79982.70 
   10187.250    168349.20     80021.70 
   10187.500    167904.20     79985.70 
   10187.750    167501.20     79975.70 
   10188.000    167042.20     79981.70 
   10188.250    166720.20     80042.70 
   10188.500    166403.20     80084.70 
   10188.750    166011.20     80125.70 
   10189.000    165375.20     80015.70 
   10189.250    164853.20     80037.70 
   10189.500    164256.20     79942.70 
   10189.750    163764.20     79952.70 
   10190.000    162962.20     79848.70 
   10190.250    162396.20     79817.70 
   10190.500    161880.20     79881.70 
   10190.750    161719.20     80079.70 
   10191.000    160981.20     80089.70 
   10191.250    160487.20     80126.70 
   10191.500    159764.20     80125.70 
   10191.750    159011.20     80061.70 
   10192.000    158184.20     80042.70 
   10192.250    157320.20     80011.70 
   10192.500    156629.20     79981.70 
   10192.750    155813.20     79986.70 
   10193.000    155143.20     79997.70 
   10193.250    154113.20     79920.70 
   10193.500    153222.20     79850.70 
   10193.750    152340.20     79896.70 
   10194.000    151470.20     79899.70 
   10194.250    150316.20     79883.70 
   10194.500    149208.20     79921.70 
   10194.750    148354.20     80003.70 
   10195.000    147185.20     80008.70 
   10195.250    146078.20     79991.70 
   10195.500    144626.20     79916.70 
   10195.750    143447.20     79871.70 
   10196.000    142009.20     79893.70 
   10196.250    140835.20     79880.70 
   10196.500    139235.20     79880.70 
   10196.750    137626.20     79901.70 
   10197.000    136215.20     79980.70 
   10197.250    134321.20     79962.70 
   10197.500    132587.20     79933.70 
   10197.750    130607.20     79972.70 
   10198.000    128853.20     80006.70 
   10198.250    126610.20     79906.70 
   10198.500    124574.20     79907.70 
   10198.750    122286.20     79932.70 
   10199.000    119831.20     79910.70 
   10199.250    117667.20     79924.70 
   10199.500    114841.20     79962.70 
   10199.750    112316.20     79835.70 
   10200.000    109465.20     80094.70 
   10200.250    106853.20     80309.70 
   10200.500    103412.20     80249.70 
   10200.750    100468.20     80278.70 
   10201.000     96843.20     80281.70 
   10201.250     93892.20     80295.70 
   10201.500     90390.20     80314.70 
   10201.750     86343.20     80266.70 
   10202.000     83067.20     80288.70 
   10202.250     78892.20     80231.70 
   10202.500     75377.20     80277.70 
   10202.750     70575.20     80246.70 
   10203.000     66871.20     80227.70 
   10203.250     61877.20     80233.70 
   10203.500     57777.20     80130.70 
   10203.750     52840.20     80156.70 
   10204.000     48825.20     80142.70 
   10204.250     44062.20     80155.70 
   10204.500     39431.20     80126.70 
   10204.750     35999.20     80200.70 
   10205.000     31604.20     80209.70 
   10205.250     28439.20     80201.70 
   10205.500     24634.20     80173.70 
   10205.750     21752.20     80168.70 
   10206.000     18658.20     80207.70 
   10206.250     16312.20     80204.70 
   10206.500     14062.20     80155.70 
   10206.750     12467.20     80089.70 
   10207.000     10831.20     80090.70 
   10207.250      9590.20     80056.70 
   10207.500      8693.20     80022.70 
   10207.750      7828.20     79943.70 
   10208.000      7262.20     79966.70 
   10208.250      6639.20     79876.70 
   10208.500      6202.20     79835.70 
   10208.750      5765.20     79714.70 
   10209.000      5447.20     79624.70 
   10209.250      5131.20     79601.70 
   10209.500      4949.20     79891.70 
   10209.750      4792.20     80229.70 
   10210.000      4718.20     80447.70 
   10210.250      4718.20     80738.70 
   10210.500      4785.20     80817.70 
   10210.750      4887.20     80716.70 
   10211.000      5077.20     80560.70 
   10211.250      5286.20     80386.70 
   10211.500      5623.20     80294.70 
   10211.750      5988.20     80206.70 
   10212.000      6500.20     80124.70 
   10212.250      7035.20     80149.70 
   10212.500      7737.20     80079.70 
   10212.750      8415.20     80074.70 
   10213.000      9300.20     80035.70 
   10213.250     10136.20     80079.70 
   10213.500     11190.20     80036.70 
   10213.750     12140.20     80077.70 
   10214.000     13372.20     80078.70 
   10214.250     14689.20     80062.70 
   10214.500     15858.20     80143.70 
   10214.750     17398.20     80131.70 
   10215.000     18676.20     80063.70 
   10215.250     20314.20     80043.70 
   10215.500     21598.20     80011.70 
   10215.750     23178.20     80000.70 
   10216.000     24540.20     80052.70 
   10216.250     25965.20     79982.70 
   10216.500     27235.20     79997.70 
   10216.750     28551.20     80021.70 
   10217.000     29622.20     80061.70 
   10217.250     30824.20     79952.70 
   10217.500     31817.20     80048.70 
   10217.750     32905.20     80036.70 
   10218.000     33936.20     80005.70 
   10218.250     34686.20     79951.70 
   10218.500     35488.20     79996.70 
   10218.750     36118.20     80008.70 
   10219.000     36745.20     80011.70 
   10219.250     37194.20     80001.70 
   10219.500     37655.20     79949.70 
   10219.750     38006.20     79943.70 
   10220.000     38343.20     79828.70 
   10220.250     38657.20     79860.70 
   10220.500     39024.20     79904.70 
   10220.750     39264.20     79810.70 
   10221.000     39558.20     79786.70 
   10221.250     39904.20     79968.70 
   10221.500     40205.20     79985.70 
   10221.750     40448.20     79970.70 
   10222.000     40685.20     79906.70 
   10222.250     40931.20     79999.70 
   10222.500     41160.20     79930.70 
   10222.750     41421.20     79945.70 
   10223.000     41615.20     79907.70 
   10223.250     41840.20     79862.70 
   10223.500     42046.20     79847.70 
   10223.750     42322.20     79887.70 
   10224.000     42657.20     80166.70 
   10224.250     43013.20     80319.70 
   10224.500     43206.20     80279.70 
   10224.750     43453.20     80277.70 
   10225.000     43671.20     80306.70 
   10225.250     43943.20     80359.70 
   10225.500     44160.20     80402.70 
   10225.750     44367.20     80364.70 
   10226.000     44492.20     80294.70 
   10226.250     44739.20     80300.70 
   10226.500     44936.20     80373.70 
   10226.750     45129.20     80307.70 
   10227.000     45295.20     80319.70 
   10227.250     45463.20     80255.70 
   10227.500     45605.20     80226.70 
   10227.750     45721.20     80178.70 
   10228.000     45832.20     80165.70 
   10228.250     45983.20     80220.70 
   10228.500     46095.20     80271.70 
   10228.750     46182.20     80285.70 
   10229.000     46263.20     80300.70 
   10229.250     46241.20     80211.70 
   10229.500     46294.20     80195.70 
   10229.750     46287.20     80156.70 
   10230.000     46346.20     80232.70 
   10230.250     46337.20     80239.70 
   10230.500     46301.20     80190.70 
   10230.750     46315.20     80252.70 
   10231.000     46272.20     80198.70 
   10231.250     46222.20     80189.70 
   10231.500     46188.20     80202.70 
   10231.750     46184.20     80218.70 
   10232.000     46136.20     80209.70 
   10232.250     46087.20     80202.70 
   10232.500     46059.20     80184.70 
   10232.750     46035.20     80182.70 
   10233.000     45976.20     80130.70 
   10233.250     46032.20     80260.70 
   10233.500     46008.20     80234.70 
   10233.750     45988.20     80166.70 
   10234.000     45941.20     80093.70 
   10234.250     45921.20     80050.70 
   10234.500     45907.20     79988.70 
   10234.750     45934.20     80001.70 
   10235.000     45833.20     79732.70 
   10235.250     45903.20     79783.70 
   10235.500     45890.20     79704.70 
   10235.750     45944.20     79846.70 
   10236.000     45899.20     79887.70 
   10236.250     45990.20     80149.70 
   10236.500     46027.20     80387.70 
   10236.750     46087.20     80476.70 
   10237.000     46060.20     80375.70 
   10238.080     45958.17     80275.67 
   10239.180     45726.07     80235.60 
   10240.290     45373.90     80205.47 
   10241.430     44985.67     80421.30 
   10242.580     44296.37     80345.06 
   10243.750     43564.01     80223.79 
   10244.950     42882.57     80253.46 
   10246.160     42114.08     80191.08 
   10247.390     41265.52     80281.65 
   10248.640     40454.89     80168.16 
   10249.910     39567.19     80341.63 
   10251.190     38541.43     80311.05 
   10252.500     37499.60     80325.41 
   10253.830     36556.70     80375.73 
   10255.170     35837.74     80498.00 
   10256.540     35384.71     80606.21 
   10257.920     35125.62     80534.38 
   10259.320     35194.46     80582.48 
   10260.740     35600.23     80669.55 
   10262.180     36290.94     80740.56 
   10263.640     37224.58     80911.52 
   10265.120     38169.16     80960.43 
   10266.610     39147.66     81019.29 
   10268.130     40039.11     81068.10 
   10269.660     40960.48     81306.86 
   10271.220     41782.79     81320.56 
   10272.790     42611.04     81442.22 
   10274.380     43238.21     81510.83 
   10275.990     43819.32     81619.38 
   10277.630     44304.37     81696.88 
   10279.270     44715.34     81727.34 
   10280.940     45144.26     81948.74 
   10282.630     45423.10     82086.09 
   10284.340     45602.88     82224.40 
   10286.060     45755.59     82444.65 
   10287.810     45780.24     82623.84 
   10289.570     45716.82     82821.00 
   10291.350     45474.34     82843.09 
   10293.150     45238.78     82886.14 
   10294.970     45083.16     83096.14 
   10296.810     44918.48     83203.09 
   10298.670     44872.73     83366.98 
   10300.550     44917.91     83562.83 
   10302.450     45253.02     84182.63 
   10304.360     45367.07     84264.37 
   10306.300     45507.06     84429.06 
   10308.250     45706.98     84662.70 
   10310.220     45811.83     84818.30 
   10312.210     45832.61     85041.84 
   10314.220     45655.33     85222.33 
   10316.250     45371.98     85382.77 
   10318.300     45026.57     85695.16 
   10320.370     44650.09     86027.49 
   10322.460     44243.54     86226.78 
   10324.560     43907.93     86452.02 
   10326.690     43689.25     86674.20 
   10328.830     43648.50     86954.34 
   10331.000     43667.69     87105.42 
   10333.180     43735.81     87106.46 
   10335.380     43913.87     87201.44 
   10337.600     44320.86     87494.38 
   10339.840     44802.78     87786.26 
   10342.100     45301.64     87982.09 
   10344.380     45905.43     88254.87 
   10346.670     46534.15     88550.60 
   10348.990     47116.80     88809.27 
   10351.320     47777.40     89196.91 
   10353.670     48324.92     89505.48 
   10356.050     48668.38     89686.01 
   10358.440     48934.77     89924.48 
   10360.850     49104.10     90021.91 
   10363.280     49177.36     90038.29 
   10365.730     49694.55     90765.61 
   10368.190     49928.68     90940.88 
   10370.680     50187.74     91066.11 
   10373.190     50536.73     91383.28 
   10375.710     50957.66     91790.40 
   10378.250     51289.53     92173.48 
   10380.820     51446.32     92307.49 
   10383.400     51598.05     92662.46 
   10386.000     51653.71     92907.38 
   10388.620     51881.31     93455.25 
   10391.260     52001.84     93647.06 
   10393.920     52333.30     94099.84 
   10396.590     52588.70     94306.55 
   10399.290     52904.04     94697.21 
   10402.010     53303.30     95182.83 
   10404.740     53435.50     95496.39 
   10407.490     53528.63     95750.91 
   10410.260     53388.70     95726.37 
   10413.060     53616.70     96368.78 
   10415.870     53663.63     96706.14 
   10418.700     53802.50     97160.45 
   10421.540     54027.30     97735.71 
   10424.410     53993.04     97874.92 
   10427.300     54126.71     98260.08 
   10430.200     54299.31     98823.19 
   10433.130     54511.84     99278.24 
   10436.070     54774.32     99477.25 
   10439.030     55208.72     99714.20 
   10442.010     55404.05     99131.11 
   10445.020     56735.33    101032.00 
   10448.040     57220.53    101144.80 
   10451.070     57870.67    101637.50 
   10454.130     58295.74    101896.20 
   10457.210     58648.75    102140.90 
   10460.300     58987.69    102477.50 
   10463.420     59336.56    102875.00 
   10466.550     59733.37    103303.50 
   10469.710     60317.11    103888.00 
   10472.880     60880.78    104414.40 
   10476.070     61435.39    104910.70 
   10479.280     61974.93    105507.00 
   10482.510     62269.41    105897.30 
   10485.750     62410.82    106215.50 
   10489.020     62581.16    106592.60 
   10492.310     62726.43    106822.70 
   10495.610     63056.64    107122.70 
   10498.940     63524.79    107596.70 
   10502.280     63991.87    108076.70 
   10505.640     64610.88    108605.60 
   10509.020     65298.82    109300.40 
   10512.420     65669.70    109663.20 
   10515.840     66095.52    110208.90 
   10519.280     66476.26    110837.60 
   10522.740     66569.94    111073.30 
   10526.220     67069.55    112122.80 
   10529.710     67228.10    112545.40 
   10533.230     67543.58    113193.90 
   10536.760     67832.99    113681.30 
   10540.310     68383.34    114555.70 
   10543.880     68899.63    115114.00 
   10547.470     69614.84    115910.30 
   10551.080     70111.99    116284.50 
   10554.710     70547.08    116492.70 
   10558.360     70882.09    116567.80 
   10562.030     72080.04    118034.90 
   10565.710     72456.93    118091.90 
   10569.420     72673.74    117844.90 
   10573.140     73581.49    118831.80 
   10576.880     74453.18    119706.70 
   10580.650     75119.80    120339.50 
   10584.430     75866.35    121028.30 
   10588.230     76497.84    121590.00 
   10592.050     77290.26    122435.70 
   10595.880     77683.61    122777.30 
   10599.740     77853.90    122921.90 
   10603.620     78015.13    123134.40 
   10607.510     78389.27    123722.90 
   10611.430     79154.37    124890.30 
   10615.360     79713.39    125687.70 
   10619.310     80160.34    126123.00 
   10623.280     80710.23    126638.30 
   10627.270     81365.05    127134.50 
   10631.280     81926.81    127406.70 
   10635.310     82594.51    127678.80 
   10639.360     83584.13    128522.90 
   10643.420     84544.69    129164.90 
   10647.510     85453.18    129915.80 
   10651.610     86258.61    130714.80 
   10655.740     86892.97    131389.60 
   10659.880     87612.26    132349.40 
   10664.040     88429.48    133370.20 
   10668.220     88878.65    133838.90 
   10672.420     88885.74    133744.60 
   10676.640     89356.77    134338.20 
   10680.880     89710.73    134658.70 
   10685.140     90459.63    135442.20 
   10689.410     91514.45    136554.70 
   10693.710     92524.22    137650.10 
   10698.020     93094.91    138100.50 
   10702.350     93750.55    138503.80 
   10706.710     94172.11    138652.00 
   10711.080     94908.60    139406.20 
   10715.470     96285.04    141114.40 
   10719.880     97185.40    141951.50 
   10724.300     97857.70    142324.50 
   10728.750     98694.93    142903.50 
   10733.220     99670.10    143708.50 
   10737.700    100608.20    144366.40 
   10742.210    101218.20    144812.20 
   10746.730    101934.20    145395.00 
   10751.270    102587.10    146071.80 
   10755.830    103267.90    146719.50 
   10760.410    103953.70    147325.10 
   10765.010    104947.40    148249.70 
   10769.630    106160.00    149411.30 
   10774.270    107187.60    150270.80 
   10778.930    108260.10    151014.20 
   10783.600    109104.50    151350.60 
   10788.290    110365.90    152349.90 
   10793.010    111193.20    152854.20 
   10797.740    111831.50    153094.50 
   10802.490    113622.60    154991.60 
   10807.260    114809.70    156031.80 
   10812.050    115013.80    155849.90 
   10816.860    117753.80    158876.90 
   10821.690    118275.70    159158.90 
   10826.540    118647.50    159589.80 
   10831.400    118690.30    159597.70 
   10836.290    119052.00    159976.50 
   10841.190    119875.60    160717.30 
   10846.110    120881.20    161760.10 
   10851.060    122221.70    162978.80 
   10856.020    124224.10    164965.40 
   10861.000    125042.50    165109.00 
   10866.000    125967.80    165606.50 
   10871.010    126333.10    165325.00 
   10876.050    127575.30    166257.40 
   10881.110    128986.40    167402.80 
   10886.180    129404.40    166741.10 
   10891.280    132298.40    170293.40 
   10896.390    133832.30    171516.60 
   10901.520    134462.10    171461.80 
   10906.670    135181.90    171647.90 
   10911.850    136790.60    173123.00 
   10917.040    137743.30    173713.00 
   10922.240    138828.90    174665.00 
   10927.470    139310.40    174839.90 
   10932.720    140339.80    175504.80 
   10937.980    141605.20    176263.60 
   10943.270    143668.50    178025.40 
   10948.570    145550.80    179672.10 
   10953.890    147452.00    181251.80 
   10959.240    147954.10    181023.40 
   10964.600    148701.10    181161.90 
   10969.980    150583.10    182867.50 
   10975.380    152209.00    184156.90 
   10980.790    153503.90    185149.30 
   10986.230    153774.70    184596.70 
   10991.690    154164.40    184323.00 
   10997.160    154928.00    185721.30 
   11002.650    159600.60    189570.50 
   11008.170    159840.10    189349.70 
   11013.700    160356.60    189650.80 
   11019.250    161651.00    190761.80 
   11024.820    162080.30    190779.80 
   11030.410    162824.50    190953.80 
   11036.020    165262.80    192935.70 
   11041.640    167227.90    194366.60 
   11047.290    170073.90    196627.40 
   11052.960    172083.90    197824.10 
   11058.640    173519.80    198446.80 
   11064.340    175205.70    199468.50 
   11070.070    177078.50    200477.10 
   11075.810    178336.20    200826.60 
   11081.570    180741.90    202383.10 
   11087.350    182795.50    203620.60 
   11093.150    183190.00    203049.00 
   11098.960    184822.40    204199.30 
   11104.800    186381.80    205532.60 
   11110.660    187693.20    206521.90 
   11116.530    189232.40    208006.10 
   11122.420    190868.60    208909.30 
   11128.340    191440.70    208773.30 
   11134.270    193127.80    209884.40 
   11140.220    195454.80    211779.40 
   11146.190    197639.70    213381.30 
   11152.180    198834.60    213817.20 
   11158.190    199363.40    213523.10 
   11164.210    201570.10    214838.90 
   11170.260    204790.80    217510.60 
   11176.320    206393.40    218064.30 
   11182.410    207471.90    218028.90 
   11188.510    209525.40    218778.50 
   11194.630    212774.80    221100.10 
   11200.770    215187.10    222510.50 
   11206.930    216172.40    222313.00 
   11213.110    217543.60    223002.40 
   11219.310    219248.70    223769.70 
   11225.530    221558.80    225505.00 
   11231.770    225216.80    228357.20 
   11238.020    226035.70    228354.40 
   11244.290    227737.60    228998.50 
   11250.590    230438.40    230832.60 
   11256.900    232571.10    232000.70 
   11263.230    234261.80    232699.60 
   11269.580    236260.40    233584.60 
   11275.950    238156.90    234373.50 
   11282.340    241900.40    237076.30 
   11288.750    243672.80    237760.10 
   11295.170    245470.10    238587.80 
   11301.620    247590.40    239455.50 
   11308.080    251351.60    242174.10 
