#XDI/1.1  GSE/1.0
# Column.1: energy eV
# Column.2: itrans
# Column.3: i0
# Scan.end_time: 2008-04-12 04:02:26
# Scan.start_time: 2008-04-12 03:48:03
# Element.symbol:  W
# Element.edge:  L3
# Facility.Name:  APS
# Beamline.Name:  13-BM-D
# Beamline.xray_source:  bending magnet
# Mono.d_spacing:  3.13555
# Mono.name: Si 111
# Beamline.Storage_Ring_Current: 101.892 || S:SRcurrentAI.VAL
# Beamline.FOE_Mono_angle_readback: 11.3361 || 13BMA:m17.RBV
# Beamline.Mono_Energy_drive_val: 10057.0000 || 13BMA:E:Energy.VAL
# Beamline.Mono_Energy_readback: 10052.0004 || 13BMA:E:E_RBV
# Beamline.Mono_Beam_Offset: 20.0000 || 13BMA:E:height.VAL
# Beamline.I0_sensitivity_value: 5 || 13BMD:A3sens_num.VAL
# Beamline.I0_sensitivity_value: nA/V || 13BMD:A3sens_unit.VAL
# Beamline.I1_sensitivity_value: 5 || 13BMD:A2sens_num.VAL
# Beamline.I1_sensitivity_value: nA/V || 13BMD:A2sens_unit.VAL
# Beamline.FOE_Mono_Yout: 10.5096 || 13BMA:m10.VAL
# Beamline.FOE_Mono_Yin: 10.7131 || 13BMA:m11.VAL
# Beamline.FOE_Mono_Yup: 9.7703 || 13BMA:m12.VAL
# Beamline.FOE_Mono_Cage_Y: 0.000 || 13BMA:m13.VAL
# Beamline.FOE_Mono_Z: 52.096 || 13BMA:m14.VAL
# Beamline.FOE_Mono_angle: 11.3376 || 13BMA:m17.VAL
# Beamline.BMD_Horiz_Width: 5.000 || 13BMD:BMDHt2.C
# Beamline.BMD_Horiz_Center: -2.000 || 13BMD:BMDHt2.D
# Beamline.BMD_Vertical_Width: 0.500 || 13BMD:BMDVt2.C
# Beamline.BMD_Vertical_Center: -19.950 || 13BMD:BMDVt2.D
# Beamline.Sample_X: 326.174 || 13BMD:m70.VAL
# Beamline.Sample_Z__focus: 60.500 || 13BMD:m33.VAL
# Beamline.Sample_Y__height: 34.000 || 13BMD:m34.VAL
# ScanParameters.Start: Scan.Member: Value
# ScanParameters.E0: 10207.0
# ScanParameters.Legend: Start       Stop       Step       Npts       Time   Kspace?
# ScanParameters.Region1: -150.00    -25.000     5.0000     26.000     1.0000   0
# ScanParameters.Region2: -25.000     30.000    0.25000     221.00     1.0000   0
# ScanParameters.Region3: 2.8061     17.000   0.049979     285.00     1.0000   1
# ScanParameters.End: here
#-------------------------
#  energy  itrans  i0
   10057.000    170795.20     80145.70 
   10062.000    171038.20     80466.70 
   10067.000    170687.20     79792.70 
   10072.000    171606.20     79874.70 
   10077.000    171115.20     79369.70 
   10082.000    172451.20     79626.70 
   10087.000    172503.20     79434.70 
   10092.000    172401.20     79095.70 
   10097.000    172960.20     79129.70 
   10102.000    174630.20     79636.70 
   10107.000    175315.20     79675.70 
   10112.000    175679.20     79649.70 
   10117.000    176371.20     79718.70 
   10122.000    177549.20     80007.70 
   10127.000    177787.20     79924.70 
   10132.000    176854.20     79332.70 
   10137.000    177298.20     79313.70 
   10142.000    178339.20     79599.70 
   10147.000    178480.20     79560.70 
   10152.000    177810.20     79180.70 
   10157.000    178333.20     79397.70 
   10162.000    179018.20     79769.70 
   10167.000    178412.20     79744.70 
   10172.000    176794.20     79403.70 
   10177.000    175326.20     79535.70 
   10182.000    172964.20     79751.70 
   10182.250    173538.20     80022.70 
   10182.500    173565.20     80124.70 
   10182.750    173349.20     80119.70 
   10183.000    172875.20     80009.70 
   10183.250    172765.20     80057.70 
   10183.500    172442.20     80006.70 
   10183.750    172162.20     79967.70 
   10184.000    171823.20     79934.70 
   10184.250    171588.20     79941.70 
   10184.500    171574.20     80044.70 
   10184.750    171195.20     79973.70 
   10185.000    171100.20     80047.70 
   10185.250    170679.20     80025.70 
   10185.500    170405.20     80019.70 
   10185.750    170134.20     80024.70 
   10186.000    169814.20     80013.70 
   10186.250    169872.20     80179.70 
   10186.500    170052.20     80416.70 
   10186.750    169703.20     80395.70 
   10187.000    169281.20     80374.70 
   10187.250    169002.20     80369.70 
   10187.500    168559.20     80381.70 
   10187.750    168176.20     80366.70 
   10188.000    167620.20     80301.70 
   10188.250    167147.20     80293.70 
   10188.500    166712.20     80277.70 
   10188.750    166272.20     80294.70 
   10189.000    165794.20     80287.70 
   10189.250    165216.20     80251.70 
   10189.500    164847.20     80285.70 
   10189.750    164210.20     80254.70 
   10190.000    163572.20     80196.70 
   10190.250    163003.20     80148.70 
   10190.500    162228.20     80101.70 
   10190.750    161936.20     80241.70 
   10191.000    161555.20     80395.70 
   10191.250    160971.20     80410.70 
   10191.500    160328.20     80454.70 
   10191.750    159552.20     80379.70 
   10192.000    158748.20     80346.70 
   10192.250    157964.20     80365.70 
   10192.500    157363.20     80355.70 
   10192.750    156332.20     80257.70 
   10193.000    155536.20     80224.70 
   10193.250    154675.20     80193.70 
   10193.500    153877.20     80209.70 
   10193.750    152970.20     80226.70 
   10194.000    152110.20     80209.70 
   10194.250    151014.20     80231.70 
   10194.500    149762.20     80182.70 
   10194.750    148961.20     80247.70 
   10195.000    147662.20     80208.70 
   10195.250    146660.20     80224.70 
   10195.500    145279.20     80158.70 
   10195.750    144179.20     80194.70 
   10196.000    142755.20     80196.70 
   10196.250    141520.20     80150.70 
   10196.500    139923.20     80160.70 
   10196.750    138372.20     80181.70 
   10197.000    136946.20     80233.70 
   10197.250    135052.20     80244.70 
   10197.500    133498.20     80288.70 
   10197.750    131353.20     80212.70 
   10198.000    129605.20     80229.70 
   10198.250    127410.20     80177.70 
   10198.500    125505.20     80192.70 
   10198.750    123115.20     80179.70 
   10199.000    120717.20     80168.70 
   10199.250    118374.20     80063.70 
   10199.500    115608.20     80088.70 
   10199.750    113402.20     80225.70 
   10200.000    110309.20     80175.70 
   10200.250    107414.20     80226.70 
   10200.500    103983.20     80135.70 
   10200.750    101127.20     80201.70 
   10201.000     97500.20     80166.70 
   10201.250     94535.20     80128.70 
   10201.500     90806.20     80140.70 
   10201.750     87237.20     80072.70 
   10202.000     83765.20     80065.70 
   10202.250     79802.20     80096.70 
   10202.500     76266.20     80111.70 
   10202.750     71589.20     80090.70 
   10203.000     67857.20     80061.70 
   10203.250     63054.20     80071.70 
   10203.500     58835.20     80067.70 
   10203.750     53903.20     80037.70 
   10204.000     49957.20     80079.70 
   10204.250     45146.20     80095.70 
   10204.500     40620.20     80110.70 
   10204.750     36941.20     80161.70 
   10205.000     32627.20     80154.70 
   10205.250     29348.20     80072.70 
   10205.500     25481.20     80039.70 
   10205.750     22519.20     79936.70 
   10206.000     19324.20     79961.70 
   10206.250     16905.20     80014.70 
   10206.500     14528.20     79991.70 
   10206.750     12912.20     80077.70 
   10207.000     11182.20     80013.70 
   10207.250      9879.20     80041.70 
   10207.500      8935.20     80112.70 
   10207.750      8048.20     80075.70 
   10208.000      7436.20     80005.70 
   10208.250      6777.20     79856.70 
   10208.500      6320.20     79753.70 
   10208.750      5843.20     79521.70 
   10209.000      5517.20     79498.70 
   10209.250      5189.20     79476.70 
   10209.500      4983.20     79619.70 
   10209.750      4803.20     80040.70 
   10210.000      4729.20     80331.70 
   10210.250      4705.20     80612.70 
   10210.500      4754.20     80739.70 
   10210.750      4843.20     80645.70 
   10211.000      5014.20     80535.70 
   10211.250      5209.20     80359.70 
   10211.500      5510.20     80164.70 
   10211.750      5865.20     80120.70 
   10212.000      6340.20     80045.70 
   10212.250      6862.20     80087.70 
   10212.500      7555.20     80087.70 
   10212.750      8208.20     80124.70 
   10213.000      9086.20     80048.70 
   10213.250      9860.20     79959.70 
   10213.500     10874.20     79913.70 
   10213.750     11795.20     79876.70 
   10214.000     13028.20     79928.70 
   10214.250     14288.20     79909.70 
   10214.500     15477.20     79943.70 
   10214.750     16906.20     79955.70 
   10215.000     18252.20     79917.70 
   10215.250     19894.20     79935.70 
   10215.500     21182.20     79942.70 
   10215.750     22736.20     79879.70 
   10216.000     24116.20     79951.70 
   10216.250     25568.20     79955.70 
   10216.500     26832.20     79981.70 
   10216.750     28151.20     79888.70 
   10217.000     29238.20     79934.70 
   10217.250     30508.20     79970.70 
   10217.500     31456.20     79958.70 
   10217.750     32591.20     79886.70 
   10218.000     33565.20     79884.70 
   10218.250     34369.20     79823.70 
   10218.500     35210.20     79865.70 
   10218.750     35847.20     79899.70 
   10219.000     36487.20     79907.70 
   10219.250     37000.20     79961.70 
   10219.500     37454.20     79914.70 
   10219.750     37853.20     79924.70 
   10220.000     38269.20     79989.70 
   10220.250     38558.20     79913.70 
   10220.500     38894.20     79915.70 
   10220.750     39173.20     79895.70 
   10221.000     39456.20     79851.70 
   10221.250     39690.20     79842.70 
   10221.500     40016.20     79867.70 
   10221.750     40284.20     79907.70 
   10222.000     40520.20     79853.70 
   10222.250     40796.20     79932.70 
   10222.500     41020.20     79860.70 
   10222.750     41229.20     79793.70 
   10223.000     41435.20     79776.70 
   10223.250     41693.20     79801.70 
   10223.500     41916.20     79820.70 
   10223.750     42160.20     79806.70 
   10224.000     42401.20     79858.70 
   10224.250     42647.20     79842.70 
   10224.500     42867.20     79868.70 
   10224.750     43109.20     79872.70 
   10225.000     43310.20     79853.70 
   10225.250     43545.20     79847.70 
   10225.500     43712.20     79816.70 
   10225.750     43942.20     79793.70 
   10226.000     44155.20     79826.70 
   10226.250     44304.20     79724.70 
   10226.500     44549.20     79840.70 
   10226.750     44747.20     79828.70 
   10227.000     44935.20     79842.70 
   10227.250     45115.20     79814.70 
   10227.500     45257.20     79833.70 
   10227.750     45406.20     79784.70 
   10228.000     45530.20     79814.70 
   10228.250     45638.20     79763.70 
   10228.500     45735.20     79752.70 
   10228.750     45812.20     79757.70 
   10229.000     45896.20     79783.70 
   10229.250     45928.20     79761.70 
   10229.500     45904.20     79662.70 
   10229.750     45974.20     79729.70 
   10230.000     46038.20     79819.70 
   10230.250     46004.20     79734.70 
   10230.500     46029.20     79813.70 
   10230.750     46026.20     79796.70 
   10231.000     45981.20     79754.70 
   10231.250     45947.20     79754.70 
   10231.500     45892.20     79730.70 
   10231.750     45827.20     79699.70 
   10232.000     45797.20     79675.70 
   10232.250     45715.20     79626.70 
   10232.500     45688.20     79636.70 
   10232.750     45709.20     79693.70 
   10233.000     45699.20     79731.70 
   10233.250     45698.20     79753.70 
   10233.500     45687.20     79766.70 
   10233.750     45657.20     79736.70 
   10234.000     45644.20     79702.70 
   10234.250     45734.20     79852.70 
   10234.500     45866.20     80011.70 
   10234.750     45798.20     79852.70 
   10235.000     45796.20     79764.70 
   10235.250     45779.20     79688.70 
   10235.500     45755.20     79606.70 
   10235.750     45847.20     79734.70 
   10236.000     45841.20     79858.70 
   10236.250     45880.20     80083.70 
   10236.500     45934.20     80294.70 
   10236.750     46047.20     80476.70 
   10237.000     46022.20     80405.70 
   10238.080     45888.17     80241.67 
   10239.180     45566.07     80102.60 
   10240.290     45226.90     80020.47 
   10241.430     44869.67     80253.30 
   10242.580     44183.37     80198.06 
   10243.750     43484.01     80101.79 
   10244.950     42812.57     80149.46 
   10246.160     42116.08     80242.08 
   10247.390     41321.52     80161.65 
   10248.640     40436.89     80125.16 
   10249.910     39451.19     80124.63 
   10251.190     38493.43     80244.05 
   10252.500     37404.60     80229.41 
   10253.830     36479.70     80197.73 
   10255.170     35727.74     80273.00 
   10256.540     35288.71     80387.21 
   10257.920     35053.62     80466.38 
   10259.320     35166.46     80638.48 
   10260.740     35522.23     80698.55 
   10262.180     36240.94     80829.56 
   10263.640     37055.58     80769.52 
   10265.120     38065.16     80874.43 
   10266.610     38961.66     80871.29 
   10268.130     39844.11     80963.10 
   10269.660     40748.48     81039.86 
   10271.220     41563.79     81091.56 
   10272.790     42419.04     81256.22 
   10274.380     43078.21     81367.83 
   10275.990     43685.32     81512.38 
   10277.630     44197.37     81658.88 
   10279.270     44640.34     81733.34 
   10280.940     45000.26     81842.74 
   10282.630     45301.10     82005.09 
   10284.340     45394.88     82006.40 
   10286.060     45530.59     82202.65 
   10287.810     45609.24     82444.84 
   10289.570     45546.82     82598.00 
   10291.350     45368.34     82652.09 
   10293.150     45145.78     82821.14 
   10294.970     44947.16     82914.14 
   10296.810     44793.48     83085.09 
   10298.670     44786.73     83286.98 
   10300.550     44817.91     83446.83 
   10302.450     44870.02     83544.63 
   10304.360     45052.07     83818.37 
   10306.300     45195.06     83973.06 
   10308.250     45248.98     83970.70 
   10310.220     45489.83     84350.30 
   10312.210     45425.61     84442.84 
   10314.220     45329.33     84679.33 
   10316.250     45068.98     84932.77 
   10318.300     44709.57     85105.16 
   10320.370     44174.09     85228.49 
   10322.460     43802.54     85489.78 
   10324.560     43384.93     85510.02 
   10326.690     43088.25     85603.20 
   10328.830     42969.50     85722.34 
   10331.000     43075.69     86087.42 
   10333.180     43350.81     86491.46 
   10335.380     43680.87     86865.44 
   10337.600     43985.86     86974.38 
   10339.840     44422.78     87223.26 
   10342.100     45037.64     87615.09 
   10344.380     45555.43     87803.87 
   10346.670     46160.15     88024.60 
   10348.990     46689.80     88167.27 
   10351.320     47241.40     88379.91 
   10353.670     47700.92     88551.48 
   10356.050     48123.38     88818.01 
   10358.440     48465.77     89161.48 
   10360.850     48756.10     89513.91 
   10363.280     48863.36     89545.29 
   10365.730     49300.55     90193.61 
   10368.190     49601.68     90467.88 
   10370.680     49854.74     90683.11 
   10373.190     50179.73     90906.28 
   10375.710     50529.66     91207.40 
   10378.250     50813.53     91489.48 
   10380.820     51061.32     91779.49 
   10383.400     51232.05     92189.46 
   10386.000     51228.71     92342.38 
   10388.620     51523.31     93031.25 
   10391.260     51776.84     93462.06 
   10393.920     52143.30     93890.84 
   10396.590     52492.70     94321.55 
   10399.290     52773.04     94636.21 
   10402.010     53065.30     95007.83 
   10404.740     53200.50     95230.39 
   10407.490     53349.63     95612.91 
   10410.260     53242.70     95686.37 
   10413.060     53490.70     96336.78 
   10415.870     53441.63     96465.14 
   10418.700     53638.50     96976.45 
   10421.540     54290.30     98375.71 
   10424.410     53978.04     98013.92 
   10427.300     53965.71     98219.08 
   10430.200     53921.31     98283.19 
   10433.130     54187.84     98854.24 
   10436.070     54433.32     99022.25 
   10439.030     55035.72     99584.20 
   10442.010     55290.05     99144.11 
   10445.020     56746.33    101224.00 
   10448.040     57078.53    101002.80 
   10451.070     57623.67    101393.50 
   10454.130     58153.74    101850.20 
   10457.210     58563.75    102111.90 
   10460.300     58939.69    102533.50 
   10463.420     59170.56    102798.00 
   10466.550     59531.37    103143.50 
   10469.710     60092.11    103708.00 
   10472.880     60556.78    104047.40 
   10476.070     61114.39    104519.70 
   10479.280     61705.93    105213.00 
   10482.510     62044.41    105696.30 
   10485.750     62239.82    106121.50 
   10489.020     62405.16    106489.60 
   10492.310     62814.43    107104.70 
   10495.610     62962.64    107178.70 
   10498.940     63290.79    107418.70 
   10502.280     63879.87    108009.70 
   10505.640     64491.88    108603.60 
   10509.020     65120.82    109205.40 
   10512.420     65561.70    109690.20 
   10515.840     66066.52    110350.90 
   10519.280     66298.26    110680.60 
   10522.740     66416.94    111024.30 
   10526.220     66489.55    111376.80 
   10529.710     66706.10    111840.40 
   10533.230     67039.58    112564.90 
   10536.760     67355.99    113058.30 
   10540.310     67943.34    113968.70 
   10543.880     68473.63    114551.00 
   10547.470     68913.84    114954.30 
   10551.080     69263.99    115083.50 
   10554.710     69868.08    115535.70 
   10558.360     70041.09    115422.80 
   10562.030     71193.04    116772.90 
   10565.710     71770.93    117126.90 
   10569.420     72137.74    117210.90 
   10573.140     73406.49    118737.80 
   10576.880     74075.18    119298.70 
   10580.650     74588.80    119677.50 
   10584.430     75005.35    119850.30 
   10588.230     75641.84    120399.00 
   10592.050     76517.26    121363.70 
   10595.880     77086.61    122002.30 
   10599.740     77556.90    122626.90 
   10603.620     77687.13    122737.40 
   10607.510     77864.27    123087.90 
   10611.430     78363.37    123850.30 
   10615.360     78846.39    124537.70 
   10619.310     79382.34    125107.00 
   10623.280     80077.23    125863.30 
   10627.270     81119.05    126975.50 
   10631.280     82066.81    127809.70 
   10635.310     82941.51    128431.80 
   10639.360     83535.13    128635.90 
   10643.420     84240.69    128945.90 
   10647.510     84966.18    129393.80 
   10651.610     85664.61    130077.80 
   10655.740     86504.97    131122.60 
   10659.880     87077.26    131736.40 
   10664.040     88095.48    133134.20 
   10668.220     88576.65    133652.90 
   10672.420     88709.74    133724.60 
   10676.640     89014.77    134120.20 
   10680.880     89612.73    134779.70 
   10685.140     90367.63    135519.20 
   10689.410     91406.45    136736.70 
   10693.710     92449.22    137805.10 
   10698.020     93330.91    138686.50 
   10702.350     93706.55    138742.80 
   10706.710     93972.11    138649.00 
   10711.080     94532.60    139169.20 
   10715.470     95289.04    139872.40 
   10719.880     96270.40    140894.50 
   10724.300     97297.70    141802.50 
   10728.750     98211.93    142513.50 
   10733.220     99245.10    143398.50 
   10737.700    100459.20    144549.40 
   10742.210    101119.20    144959.20 
   10746.730    101776.20    145477.00 
   10751.270    102576.10    146282.80 
   10755.830    103377.90    147134.50 
   10760.410    104003.70    147668.10 
   10765.010    104665.40    148144.70 
   10769.630    105568.00    148938.30 
   10774.270    106940.60    150219.80 
   10778.930    108459.10    151590.20 
   10783.600    109105.50    151622.60 
   10788.290    109997.90    152069.90 
   10793.010    110817.20    152586.20 
   10797.740    111382.50    152811.50 
   10802.490    112378.60    153606.60 
   10807.260    113576.70    154634.80 
   10812.050    113501.80    154042.90 
   10816.860    116407.80    157350.90 
   10821.690    116886.70    157631.90 
   10826.540    117604.50    158448.80 
   10831.400    118346.30    159375.70 
   10836.290    119043.00    160258.50 
   10841.190    119295.60    160250.30 
   10846.110    119838.20    160550.10 
   10851.060    120648.70    161161.80 
   10856.020    122346.10    162782.40 
   10861.000    123768.50    163769.00 
   10866.000    125138.80    164850.50 
   10871.010    126189.10    165476.00 
   10876.050    127033.30    165951.40 
   10881.110    127859.40    166235.80 
   10886.180    128260.40    165569.10 
   10891.280    131672.40    169810.40 
   10896.390    132889.30    170627.60 
   10901.520    134197.10    171416.80 
   10906.670    135001.90    171787.90 
   10911.850    136788.60    173447.00 
   10917.040    137085.30    173278.00 
   10922.240    137904.90    173894.00 
   10927.470    139287.40    175251.90 
   10932.720    140646.80    176334.80 
   10937.980    141985.20    177194.60 
   10943.270    143560.50    178349.40 
   10948.570    144983.80    179403.10 
   10953.890    145480.00    179146.80 
   10959.240    146572.10    179689.40 
   10964.600    148539.10    181330.90 
   10969.980    149954.10    182454.50 
   10975.380    150923.00    182904.90 
   10980.790    151626.90    183187.30 
   10986.230    153098.70    184149.70 
   10991.690    155586.40    186476.00 
   10997.160    154183.00    185554.30 
   11002.650    159577.60    190011.50 
   11008.170    159613.10    189609.70 
   11013.700    159938.60    189584.80 
   11019.250    160564.00    189888.80 
   11024.820    161947.30    191036.80 
   11030.410    163621.50    192282.80 
   11036.020    165082.80    193150.70 
   11041.640    166816.90    194233.60 
   11047.290    169084.90    195909.40 
   11052.960    169939.90    195748.10 
   11058.640    171520.80    196561.80 
   11064.340    172412.70    196635.50 
   11070.070    174367.50    197776.10 
   11075.810    176139.20    198853.60 
   11081.570    178977.90    200904.10 
   11087.350    181647.50    202820.60 
   11093.150    182537.00    202826.00 
   11098.960    183476.40    203129.30 
   11104.800    185229.80    204640.60 
   11110.660    186254.20    205358.90 
   11116.530    187803.40    206822.10 
   11122.420    190178.60    208655.30 
   11128.340    190374.70    208060.30 
   11134.270    190917.80    207862.40 
   11140.220    192372.80    208820.40 
   11146.190    195025.70    210904.30 
   11152.180    197732.60    213159.20 
   11158.190    198595.40    213178.10 
   11164.210    200199.10    213917.90 
   11170.260    202149.80    215067.60 
   11176.320    204753.40    216842.30 
   11182.410    206647.90    217596.90 
   11188.510    207887.40    217517.50 
   11194.630    210232.80    218923.10 
   11200.770    213364.10    221210.50 
   11206.930    214816.40    221410.00 
   11213.110    217200.60    223171.40 
   11219.310    218286.70    223302.70 
   11225.530    221381.80    225779.00 
   11231.770    222737.80    226207.20 
   11238.020    222308.70    224932.40 
   11244.290    226247.60    228014.50 
   11250.590    229115.40    229979.60 
   11256.900    230761.10    230669.70 
   11263.230    231529.80    230434.60 
   11269.580    234920.40    232805.60 
   11275.950    237432.90    234157.50 
   11282.340    238792.40    234433.30 
   11288.750    239007.80    233661.10 
   11295.170    242449.10    236141.80 
   11301.620    244993.40    237523.50 
   11308.080    247994.60    239431.10 
