#XDI/1.1  GSE/1.0
# Column.1: energy eV
# Column.2: itrans
# Column.3: i0
# Scan.end_time: 2008-04-12 06:42:50
# Scan.start_time: 2008-04-12 06:28:31
# Element.symbol:  W
# Element.edge:  L3
# Facility.Name:  APS
# Beamline.Name:  13-BM-D
# Beamline.xray_source:  bending magnet
# Mono.dspacing:  3.13555
# Mono.name: Si 111
# Beamline.Storage_Ring_Current: 102.068 || S:SRcurrentAI.VAL
# Beamline.FOE_Mono_angle_readback: 11.3362 || 13BMA:m17.RBV
# Beamline.Mono_Energy_drive_val: 10057.0000 || 13BMA:E:Energy.VAL
# Beamline.Mono_Energy_readback: 10052.0004 || 13BMA:E:E_RBV
# Beamline.Mono_Beam_Offset: 20.0000 || 13BMA:E:height.VAL
# Beamline.I0_sensitivity_value: 5 || 13BMD:A3sens_num.VAL
# Beamline.I0_sensitivity_value: nA/V || 13BMD:A3sens_unit.VAL
# Beamline.I1_sensitivity_value: 5 || 13BMD:A2sens_num.VAL
# Beamline.I1_sensitivity_value: nA/V || 13BMD:A2sens_unit.VAL
# Beamline.FOE_Mono_Yout: 10.5096 || 13BMA:m10.VAL
# Beamline.FOE_Mono_Yin: 10.7131 || 13BMA:m11.VAL
# Beamline.FOE_Mono_Yup: 9.7703 || 13BMA:m12.VAL
# Beamline.FOE_Mono_Cage_Y: 0.000 || 13BMA:m13.VAL
# Beamline.FOE_Mono_Z: 52.096 || 13BMA:m14.VAL
# Beamline.FOE_Mono_angle: 11.3376 || 13BMA:m17.VAL
# Beamline.BMD_Horiz_Width: 5.000 || 13BMD:BMDHt2.C
# Beamline.BMD_Horiz_Center: -2.000 || 13BMD:BMDHt2.D
# Beamline.BMD_Vertical_Width: 0.500 || 13BMD:BMDVt2.C
# Beamline.BMD_Vertical_Center: -19.950 || 13BMD:BMDVt2.D
# Beamline.Sample_X: 326.174 || 13BMD:m70.VAL
# Beamline.Sample_Z__focus: 60.500 || 13BMD:m33.VAL
# Beamline.Sample_Y__height: 34.000 || 13BMD:m34.VAL
# ScanParameters.Start: Scan.Member: Value
# ScanParameters.E0: 10207.0
# ScanParameters.Legend: Start       Stop       Step       Npts       Time   Kspace?
# ScanParameters.Region1: -150.00    -25.000     5.0000     26.000     1.0000   0
# ScanParameters.Region2: -25.000     30.000    0.25000     221.00     1.0000   0
# ScanParameters.Region3: 2.8061     17.000   0.049979     285.00     1.0000   1
# ScanParameters.End: here
#-------------------------
#  energy  itrans  i0
   10057.000    171484.20     80487.70 
   10062.000    170150.20     80023.70 
   10067.000    170628.20     79782.70 
   10072.000    170790.20     79540.70 
   10077.000    171241.20     79404.70 
   10082.000    171159.20     79090.70 
   10087.000    171940.20     79228.70 
   10092.000    173849.20     79790.70 
   10097.000    174471.20     79856.70 
   10102.000    174593.20     79659.70 
   10107.000    175131.20     79664.70 
   10112.000    176235.20     79920.70 
   10117.000    176606.20     79844.70 
   10122.000    176126.20     79402.70 
   10127.000    176685.20     79467.70 
   10132.000    178094.20     79906.70 
   10137.000    178388.20     79865.70 
   10142.000    178390.20     79652.70 
   10147.000    178293.20     79586.70 
   10152.000    179802.20     80109.70 
   10157.000    180320.20     80343.70 
   10162.000    179712.20     80134.70 
   10167.000    179006.20     80053.70 
   10172.000    179018.20     80472.70 
   10177.000    176919.20     80294.70 
   10182.000    173126.20     79901.70 
   10182.250    173355.20     80000.70 
   10182.500    173374.20     80070.70 
   10182.750    173593.20     80275.70 
   10183.000    173633.20     80379.70 
   10183.250    173580.20     80459.70 
   10183.500    173622.20     80562.70 
   10183.750    173491.20     80583.70 
   10184.000    173331.20     80646.70 
   10184.250    172904.20     80564.70 
   10184.500    172576.20     80516.70 
   10184.750    172289.20     80512.70 
   10185.000    172027.20     80496.70 
   10185.250    171665.20     80455.70 
   10185.500    171379.20     80478.70 
   10185.750    171071.20     80465.70 
   10186.000    170845.20     80519.70 
   10186.250    170601.20     80555.70 
   10186.500    170162.20     80502.70 
   10186.750    169786.20     80468.70 
   10187.000    169498.20     80509.70 
   10187.250    169216.20     80513.70 
   10187.500    168834.20     80519.70 
   10187.750    168553.20     80556.70 
   10188.000    168041.20     80542.70 
   10188.250    167485.20     80513.70 
   10188.500    167048.20     80507.70 
   10188.750    166572.20     80512.70 
   10189.000    165947.20     80409.70 
   10189.250    165372.20     80362.70 
   10189.500    164879.20     80385.70 
   10189.750    164326.20     80355.70 
   10190.000    163492.20     80229.70 
   10190.250    162993.20     80198.70 
   10190.500    162576.20     80329.70 
   10190.750    162278.20     80459.70 
   10191.000    161795.20     80561.70 
   10191.250    161363.20     80658.70 
   10191.500    160570.20     80614.70 
   10191.750    159822.20     80604.70 
   10192.000    158844.20     80455.70 
   10192.250    157948.20     80414.70 
   10192.500    157336.20     80408.70 
   10192.750    156519.20     80417.70 
   10193.000    155844.20     80444.70 
   10193.250    155005.20     80464.70 
   10193.500    154307.20     80490.70 
   10193.750    153163.20     80445.70 
   10194.000    152306.20     80424.70 
   10194.250    151229.20     80437.70 
   10194.500    149890.20     80349.70 
   10194.750    148962.20     80358.70 
   10195.000    147733.20     80357.70 
   10195.250    146725.20     80398.70 
   10195.500    145367.20     80363.70 
   10195.750    144202.20     80331.70 
   10196.000    142755.20     80329.70 
   10196.250    141691.20     80383.70 
   10196.500    140052.20     80348.70 
   10196.750    138459.20     80394.70 
   10197.000    136941.20     80418.70 
   10197.250    135098.20     80434.70 
   10197.500    133287.20     80344.70 
   10197.750    131347.20     80358.70 
   10198.000    129426.20     80322.70 
   10198.250    127254.20     80295.70 
   10198.500    125247.20     80289.70 
   10198.750    123077.20     80361.70 
   10199.000    120595.20     80326.70 
   10199.250    118538.20     80404.70 
   10199.500    115643.20     80390.70 
   10199.750    113198.20     80371.70 
   10200.000    109935.20     80332.70 
   10200.250    107120.20     80305.70 
   10200.500    103748.20     80289.70 
   10200.750    100711.20     80247.70 
   10201.000     97164.20     80267.70 
   10201.250     94161.20     80269.70 
   10201.500     90465.20     80265.70 
   10201.750     86755.20     80241.70 
   10202.000     83415.20     80225.70 
   10202.250     79229.20     80127.70 
   10202.500     75687.20     80141.70 
   10202.750     71047.20     80175.70 
   10203.000     67353.20     80244.70 
   10203.250     62367.20     80229.70 
   10203.500     58389.20     80255.70 
   10203.750     53495.20     80309.70 
   10204.000     49484.20     80332.70 
   10204.250     44628.20     80251.70 
   10204.500     40010.20     80274.70 
   10204.750     36489.20     80246.70 
   10205.000     32089.20     80222.70 
   10205.250     28892.20     80212.70 
   10205.500     25062.20     80170.70 
   10205.750     22131.20     80163.70 
   10206.000     18968.20     80124.70 
   10206.250     16574.20     80113.70 
   10206.500     14290.20     80087.70 
   10206.750     12675.20     80131.70 
   10207.000     11001.20     80096.70 
   10207.250      9724.20     80131.70 
   10207.500      8810.20     80136.70 
   10207.750      7936.20     80119.70 
   10208.000      7340.20     80043.70 
   10208.250      6704.20     79958.70 
   10208.500      6259.20     79869.70 
   10208.750      5792.20     79680.70 
   10209.000      5479.20     79686.70 
   10209.250      5158.20     79641.70 
   10209.500      4965.20     79811.70 
   10209.750      4796.20     80190.70 
   10210.000      4728.20     80542.70 
   10210.250      4708.20     80818.70 
   10210.500      4768.20     80895.70 
   10210.750      4859.20     80811.70 
   10211.000      5041.20     80635.70 
   10211.250      5248.20     80522.70 
   10211.500      5570.20     80322.70 
   10211.750      5919.20     80282.70 
   10212.000      6420.20     80256.70 
   10212.250      6939.20     80151.70 
   10212.500      7629.20     80118.70 
   10212.750      8300.20     80118.70 
   10213.000      9175.20     80152.70 
   10213.250     10000.20     80151.70 
   10213.500     11034.20     80109.70 
   10213.750     11962.20     80085.70 
   10214.000     13196.20     80080.70 
   10214.250     14486.20     80035.70 
   10214.500     15656.20     80068.70 
   10214.750     17156.20     80060.70 
   10215.000     18443.20     80029.70 
   10215.250     20083.20     79998.70 
   10215.500     21362.20     79982.70 
   10215.750     22967.20     80031.70 
   10216.000     24301.20     80044.70 
   10216.250     25736.20     80071.70 
   10216.500     27024.20     80071.70 
   10216.750     28358.20     80058.70 
   10217.000     29424.20     80096.70 
   10217.250     30658.20     80095.70 
   10217.500     31645.20     80126.70 
   10217.750     32727.20     80001.70 
   10218.000     33779.20     80079.70 
   10218.250     34531.20     80058.70 
   10218.500     35330.20     80015.70 
   10218.750     35954.20     79976.70 
   10219.000     36577.20     79986.70 
   10219.250     37043.20     80008.70 
   10219.500     37512.20     79973.70 
   10219.750     37920.20     80053.70 
   10220.000     38320.20     80036.70 
   10220.250     38584.20     79975.70 
   10220.500     38929.20     79968.70 
   10220.750     39240.20     80017.70 
   10221.000     39506.20     79950.70 
   10221.250     39804.20     79986.70 
   10221.500     40103.20     79986.70 
   10221.750     40350.20     80011.70 
   10222.000     40609.20     79996.70 
   10222.250     40844.20     80021.70 
   10222.500     41100.20     79990.70 
   10222.750     41318.20     79966.70 
   10223.000     41531.20     79958.70 
   10223.250     41765.20     79898.70 
   10223.500     41973.20     79911.70 
   10223.750     42211.20     79868.70 
   10224.000     42467.20     79942.70 
   10224.250     42721.20     79931.70 
   10224.500     42911.20     79948.70 
   10224.750     43135.20     79880.70 
   10225.000     43358.20     79904.70 
   10225.250     43558.20     79828.70 
   10225.500     43771.20     79889.70 
   10225.750     44011.20     79898.70 
   10226.000     44199.20     79917.70 
   10226.250     44455.20     79950.70 
   10226.500     44640.20     79974.70 
   10226.750     44840.20     79935.70 
   10227.000     45007.20     79950.70 
   10227.250     45161.20     79911.70 
   10227.500     45333.20     79936.70 
   10227.750     45469.20     79880.70 
   10228.000     45518.20     79820.70 
   10228.250     45692.20     79867.70 
   10228.500     45781.20     79836.70 
   10228.750     46045.20     80210.70 
   10229.000     46183.20     80315.70 
   10229.250     46221.20     80305.70 
   10229.500     46248.20     80317.70 
   10229.750     46290.20     80327.70 
   10230.000     46238.20     80203.70 
   10230.250     46295.20     80296.70 
   10230.500     46265.20     80273.70 
   10230.750     46288.20     80300.70 
   10231.000     46287.20     80361.70 
   10231.250     46194.20     80238.70 
   10231.500     46152.20     80247.70 
   10231.750     46164.20     80316.70 
   10232.000     46078.20     80206.70 
   10232.250     46061.20     80245.70 
   10232.500     45985.20     80200.70 
   10232.750     45964.20     80219.70 
   10233.000     45895.20     80139.70 
   10233.250     45883.20     80148.70 
   10233.500     45889.20     80206.70 
   10233.750     45876.20     80187.70 
   10234.000     45860.20     80104.70 
   10234.250     45859.20     80143.70 
   10234.500     45865.20     80040.70 
   10234.750     45846.20     80012.70 
   10235.000     45831.20     79926.70 
   10235.250     45835.20     79835.70 
   10235.500     45866.20     79818.70 
   10235.750     45879.20     79876.70 
   10236.000     45940.20     80065.70 
   10236.250     45975.20     80299.70 
   10236.500     46047.20     80531.70 
   10236.750     46045.20     80544.70 
   10237.000     46008.20     80444.70 
   10238.080     45858.17     80265.67 
   10239.180     45628.07     80273.60 
   10240.290     45282.90     80220.47 
   10241.430     44856.67     80367.30 
   10242.580     44205.37     80331.06 
   10243.750     43493.01     80252.79 
   10244.950     42797.57     80260.46 
   10246.160     42017.08     80193.08 
   10247.390     41287.52     80255.65 
   10248.640     40454.89     80316.16 
   10249.910     39471.19     80260.63 
   10251.190     38502.43     80331.05 
   10252.500     37400.60     80327.41 
   10253.830     36503.70     80388.73 
   10255.170     35802.74     80524.00 
   10256.540     35355.71     80641.21 
   10257.920     35111.62     80661.38 
   10259.320     35132.46     80641.48 
   10260.740     35500.23     80635.55 
   10262.180     36160.94     80698.56 
   10263.640     37042.58     80712.52 
   10265.120     38054.16     80939.43 
   10266.610     39026.66     80964.29 
   10268.130     39876.11     81047.10 
   10269.660     40839.48     81208.86 
   10271.220     41695.79     81348.56 
   10272.790     42504.04     81436.22 
   10274.380     43181.21     81558.83 
   10275.990     43776.32     81699.38 
   10277.630     44224.37     81715.88 
   10279.270     44655.34     81784.34 
   10280.940     45009.26     81868.74 
   10282.630     45348.10     82067.09 
   10284.340     45475.88     82153.40 
   10286.060     45623.59     82375.65 
   10287.810     45706.24     82642.84 
   10289.570     45637.82     82805.00 
   10291.350     45410.34     82816.09 
   10293.150     45215.78     82944.14 
   10294.970     44966.16     83017.14 
   10296.810     44804.48     83104.09 
   10298.670     44729.73     83231.98 
   10300.550     44845.91     83536.83 
   10302.450     44958.02     83751.63 
   10304.360     45115.07     83991.37 
   10306.300     45222.06     84079.06 
   10308.250     45432.98     84322.70 
   10310.220     45494.83     84422.30 
   10312.210     45490.61     84570.84 
   10314.220     45276.33     84661.33 
   10316.250     45043.98     84915.77 
   10318.300     44709.57     85246.16 
   10320.370     44288.09     85479.49 
   10322.460     43899.54     85710.78 
   10324.560     43627.93     86038.02 
   10326.690     43399.25     86259.20 
   10328.830     43267.50     86408.34 
   10331.000     43263.69     86474.42 
   10333.180     43392.81     86623.46 
   10335.380     43605.87     86789.44 
   10337.600     44019.86     87070.38 
   10339.840     44630.78     87692.26 
   10342.100     45187.64     87935.09 
   10344.380     45810.43     88300.87 
   10346.670     46466.15     88592.60 
   10348.990     47129.80     88986.27 
   10351.320     47684.40     89215.91 
   10353.670     48144.92     89368.48 
   10356.050     48514.38     89553.01 
   10358.440     48774.77     89743.48 
   10360.850     49020.10     90011.91 
   10363.280     49124.36     90074.29 
   10365.730     49541.55     90665.61 
   10368.190     49893.68     91033.88 
   10370.680     50129.74     91170.11 
   10373.190     50574.73     91642.28 
   10375.710     50941.66     91937.40 
   10378.250     51244.53     92267.48 
   10380.820     51408.32     92483.49 
   10383.400     51551.05     92735.46 
   10386.000     51640.71     93102.38 
   10388.620     51678.31     93289.25 
   10391.260     51861.84     93582.06 
   10393.920     52171.30     93986.84 
   10396.590     52504.70     94334.55 
   10399.290     52873.04     94780.21 
   10402.010     53216.30     95228.83 
   10404.740     53290.50     95421.39 
   10407.490     53312.63     95589.91 
   10410.260     53192.70     95627.37 
   10413.060     53472.70     96360.78 
   10415.870     53596.63     96781.14 
   10418.700     53692.50     97116.45 
   10421.540     53863.30     97652.71 
   10424.410     54025.04     98139.92 
   10427.300     54011.71     98307.08 
   10430.200     54094.31     98605.19 
   10433.130     54121.84     98778.24 
   10436.070     54460.32     99169.25 
   10439.030     55038.72     99664.20 
   10442.010     55306.05     99187.11 
   10445.020     56799.33    101399.00 
   10448.040     57211.53    101371.80 
   10451.070     57784.67    101681.50 
   10454.130     58236.74    101997.20 
   10457.210     58586.75    102260.90 
   10460.300     58951.69    102670.50 
   10463.420     59345.56    103152.00 
   10466.550     59709.37    103470.50 
   10469.710     60233.11    104013.00 
   10472.880     60633.78    104214.40 
   10476.070     61115.39    104596.70 
   10479.280     61548.93    105064.00 
   10482.510     61791.41    105330.30 
   10485.750     62118.82    106015.50 
   10489.020     62338.16    106466.60 
   10492.310     62794.43    107163.70 
   10495.610     63184.64    107639.70 
   10498.940     63613.79    108013.70 
   10502.280     63975.87    108351.70 
   10505.640     64497.88    108734.60 
   10509.020     65055.82    109156.40 
   10512.420     65413.70    109518.20 
   10515.840     65907.52    110169.90 
   10519.280     66239.26    110703.60 
   10522.740     66349.94    110972.30 
   10526.220     66625.55    111639.80 
   10529.710     66676.10    111831.40 
   10533.230     66928.58    112367.90 
   10536.760     67269.99    112963.30 
   10540.310     67957.34    114049.70 
   10543.880     68485.63    114657.00 
   10547.470     69152.84    115394.30 
   10551.080     69755.99    115927.50 
   10554.710     70142.08    116063.70 
   10558.360     70326.09    115912.80 
   10562.030     71478.04    117314.90 
   10565.710     71922.93    117435.90 
   10569.420     72211.74    117373.90 
   10573.140     73227.49    118488.80 
   10576.880     74486.18    120018.70 
   10580.650     75094.80    120545.50 
   10584.430     75684.35    121002.30 
   10588.230     76294.84    121534.00 
   10592.050     77056.26    122284.70 
   10595.880     77524.61    122804.30 
   10599.740     77749.90    123026.90 
   10603.620     77940.13    123267.40 
   10607.510     78268.27    123823.90 
   10611.430     79011.37    124940.30 
   10615.360     79602.39    125767.70 
   10619.310     80062.34    126249.00 
   10623.280     80591.23    126708.30 
   10627.270     81197.05    127156.50 
   10631.280     81722.81    127445.70 
   10635.310     82494.51    127865.80 
   10639.360     83524.13    128693.90 
   10643.420     84632.69    129627.90 
   10647.510     85417.18    130217.80 
   10651.610     86013.61    130706.80 
   10655.740     87006.97    131948.60 
   10659.880     87460.26    132472.40 
   10664.040     88019.48    133114.20 
   10668.220     88327.65    133423.90 
   10672.420     88966.74    134242.60 
   10676.640     89551.77    135004.20 
   10680.880     90170.73    135740.70 
   10685.140     90992.63    136676.20 
   10689.410     91463.45    136891.70 
   10693.710     91865.22    137024.10 
   10698.020     92484.91    137546.50 
   10702.350     93536.55    138547.80 
   10706.710     94580.11    139618.00 
   10711.080     95595.60    140829.20 
   10715.470     96334.04    141592.40 
   10719.880     96798.40    141778.50 
   10724.300     97626.70    142440.50 
   10728.750     98168.93    142668.50 
   10733.220     98965.10    143148.50 
   10737.700     99750.20    143604.40 
   10742.210    100571.20    144347.20 
   10746.730    101519.20    145293.00 
   10751.270    102425.10    146259.80 
   10755.830    102850.90    146602.50 
   10760.410    103709.70    147424.10 
   10765.010    104851.40    148567.70 
   10769.630    106022.00    149687.30 
   10774.270    106535.60    149776.80 
   10778.930    107411.10    150239.20 
   10783.600    108517.50    150945.60 
   10788.290    109548.90    151536.90 
   10793.010    110530.20    152281.20 
   10797.740    111534.50    153103.50 
   10802.490    113103.60    154707.60 
   10807.260    114204.70    155623.80 
   10812.050    114410.80    155466.90 
   10816.860    116859.80    158099.90 
   10821.690    117065.70    157991.90 
   10826.540    117433.50    158354.80 
   10831.400    117576.30    158430.70 
   10836.290    118141.00    159151.50 
   10841.190    119423.60    160546.30 
   10846.110    120928.20    162250.10 
   10851.060    122374.70    163661.80 
   10856.020    123880.10    164949.40 
   10861.000    124418.50    164735.00 
   10866.000    124966.80    164722.50 
   10871.010    125797.10    165067.00 
   10876.050    127188.30    166325.40 
   10881.110    128636.40    167414.80 
   10886.180    129506.40    167338.10 
   10891.280    132202.40    170603.40 
   10896.390    132988.30    170905.60 
   10901.520    134386.10    171781.80 
   10906.670    135182.90    172139.90 
   10911.850    137028.60    173887.00 
   10917.040    137432.30    173851.00 
   10922.240    138065.90    174262.00 
   10927.470    138971.40    174965.90 
   10932.720    140285.80    176012.80 
   10937.980    141914.20    177108.60 
   10943.270    143669.50    178501.40 
   10948.570    145017.80    179525.10 
   10953.890    146073.00    179909.80 
   10959.240    147061.10    180402.40 
   10964.600    148702.10    181656.90 
   10969.980    150051.10    182736.50 
   10975.380    151410.00    183683.90 
   10980.790    152089.90    183938.30 
   10986.230    152944.70    184057.70 
   10991.690    154775.40    185606.00 
   10997.160    155067.00    186426.30 
   11002.650    159558.60    190111.50 
   11008.170    159917.10    190061.70 
   11013.700    160156.60    189935.80 
   11019.250    160941.00    190476.80 
   11024.820    161652.30    190744.80 
   11030.410    162927.50    191638.80 
   11036.020    164974.80    193150.70 
   11041.640    167012.90    194718.60 
   11047.290    169337.90    196330.40 
   11052.960    170314.90    196392.10 
   11058.640    171652.80    196819.80 
   11064.340    172768.70    197175.50 
   11070.070    174995.50    198616.10 
   11075.810    176919.20    199792.60 
   11081.570    178798.90    200722.10 
   11087.350    180382.50    201445.60 
   11093.150    182025.00    202397.00 
   11098.960    184473.40    204409.30 
   11104.800    185244.80    204835.60 
   11110.660    187097.20    206441.90 
   11116.530    188025.40    207196.10 
   11122.420    189896.60    208437.30 
   11128.340    190886.70    208733.30 
   11134.270    193594.80    211062.40 
   11140.220    196688.80    213745.40 
   11146.190    197730.70    214046.30 
   11152.180    197967.60    213439.20 
   11158.190    199264.40    214065.10 
   11164.210    201406.10    215375.90 
   11170.260    204155.80    217400.60 
   11176.320    204967.40    217185.30 
   11182.410    206240.90    217366.90 
   11188.510    210332.40    220342.50 
   11194.630    213735.80    222745.10 
   11200.770    214657.10    222643.50 
   11206.930    215466.40    222217.00 
   11213.110    218350.60    224477.40 
   11219.310    220712.70    226005.70 
   11225.530    221510.80    226059.00 
   11231.770    222348.80    225935.20 
   11238.020    224892.70    227755.40 
   11244.290    228530.60    230461.50 
   11250.590    228370.40    229304.60 
   11256.900    230696.10    230636.70 
   11263.230    233390.80    232464.60 
   11269.580    235630.40    233560.60 
   11275.950    237216.90    233970.50 
   11282.340    239303.40    235053.30 
   11288.750    242240.80    237016.10 
   11295.170    244344.10    238138.80 
   11301.620    246794.40    239395.50 
   11308.080    248979.60    240455.10 
