# XDI/1.0
# Column.1: energy eV
# Column.2: i0
# Column.3: itrans
# Beamline.name: APS 13-BM-D
# Beamline.notes: vert slits = 2mm (at 45m)
# Detector.I0: N2 15cm
# Detector.I1: N2 15cm
# Element.edge: K
# Element.symbol: Fe
# Mono.d_spacing: 3.13550
# Mono.name: Si(111)
# Mono.notes: unfocussed, detuned 50%
# Sample.formula: Fe3O4
# Sample.name: Fe3O4 powder  Room Temperature
# Sample.prep: powder on tape, 6 layers
# Sample.reference: none
# Sample.temperature: Room Temperature
# Scan.start_time: 2002-03-16 19:08:35
# ///
#    Note: mono d_spacing is nominal!
#     Energy drive values recorded (encoder used, not recorded)
#     348 E XMU I0
#-------------
#   energy   i0   itrans
    6962.0000  302593.800000  269023.498835
    6972.0000  304805.800000  274853.501116
    6982.0000  304795.800000  278856.499889
    6992.0000  304794.800000  282583.500047
    7002.0000  304772.800000  286564.500080
    7012.0000  304673.800000  290611.500125
    7022.0000  304677.800000  294382.499892
    7032.0000  304363.800000  298161.500129
    7042.0000  304785.800000  302441.499988
    7052.0000  304631.800000  306350.500010
    7062.0000  304557.800000  310200.499971
    7072.0000  304448.800000  314086.499948
    7082.0000  304445.800000  317710.499941
    7092.0000  304393.800000  320686.500143
    7092.5000  304060.800000  320465.500047
    7093.0000  303985.800000  320339.499965
    7093.5000  303948.800000  320542.500095
    7094.0000  303936.800000  320600.500098
    7094.5000  303966.800000  320792.500080
    7095.0000  303918.800000  320804.500044
    7095.5000  303997.800000  320745.499923
    7096.0000  304377.800000  321410.499882
    7096.5000  305662.800000  322892.500024
    7097.0000  305851.800000  323200.500076
    7097.5000  305911.800000  323271.499897
    7098.0000  305854.800000  323194.500116
    7098.5000  305902.800000  323266.500000
    7099.0000  305843.800000  323239.499865
    7099.5000  305838.800000  323497.499943
    7100.0000  305795.800000  323455.500134
    7100.5000  305727.800000  323496.499959
    7101.0000  305699.800000  323272.499955
    7101.5000  305698.800000  323522.500056
    7102.0000  305660.800000  323383.499984
    7102.5000  305591.800000  323351.499888
    7103.0000  305610.800000  322948.500063
    7103.5000  305554.800000  323068.499855
    7104.0000  305602.800000  322978.500005
    7104.5000  305520.800000  322840.500062
    7105.0000  305459.800000  322496.499977
    7105.5000  305431.800000  322387.499978
    7106.0000  305399.800000  322340.499889
    7106.5000  305376.800000  321877.499863
    7107.0000  305423.800000  321624.500108
    7107.5000  305344.800000  321089.500134
    7108.0000  305327.800000  320542.499903
    7108.5000  305268.800000  319967.499942
    7109.0000  305297.800000  319107.500024
    7109.5000  305243.800000  318010.500147
    7110.0000  305202.800000  316278.500039
    7110.5000  305157.800000  313387.499958
    7111.0000  305214.800000  309135.499975
    7111.5000  305145.800000  302514.499990
    7112.0000  305101.800000  292569.500036
    7112.5000  305112.800000  278087.499981
    7113.0000  305097.800000  266689.500163
    7113.5000  305100.800000  264903.498698
    7114.0000  305106.800000  269171.499011
    7114.5000  305074.800000  274299.499265
    7115.0000  305035.800000  277053.500121
    7115.5000  304940.800000  277703.499901
    7116.0000  304732.800000  275943.500124
    7116.5000  304385.800000  272100.500655
    7117.0000  304685.800000  266434.499175
    7117.5000  305426.800000  257549.499501
    7118.0000  305360.800000  246227.500732
    7118.5000  304991.800000  230508.500666
    7119.0000  304889.800000  212248.500385
    7119.5000  304850.800000  192510.499788
    7120.0000  304811.800000  170552.499959
    7120.5000  304809.800000  151154.500453
    7121.0000  304802.800000  134333.499483
    7121.5000  304713.800000  118432.499691
    7122.0000  304683.800000  105050.503216
    7122.5000  304709.800000  92127.496414
    7123.0000  304662.800000  79349.503609
    7123.5000  304597.800000  68464.496925
    7124.0000  304605.800000  59135.497679
    7124.5000  304575.800000  51490.498157
    7125.0000  304545.800000  45691.500063
    7125.5000  304528.800000  40931.501072
    7126.0000  304502.800000  37152.500701
    7126.5000  304490.800000  33904.500824
    7127.0000  304413.800000  30354.499495
    7127.5000  305360.800000  26839.501215
    7128.0000  305503.800000  23543.501019
    7128.5000  306032.800000  20559.499271
    7129.0000  306012.800000  18343.500786
    7129.5000  306054.800000  16971.500072
    7130.0000  305979.800000  16365.500429
    7130.5000  305909.800000  16373.500213
    7131.0000  305954.800000  16747.499753
    7131.5000  305994.800000  17358.500145
    7132.0000  305906.800000  18045.500617
    7132.8830  305939.800000  19786.499280
    7133.7850  305911.800000  22051.499963
    7134.7070  305933.800000  24147.499604
    7135.6470  305827.800000  25606.499307
    7136.6060  305823.800000  26617.500663
    7137.5840  305816.800000  27638.500044
    7138.5820  305790.800000  28991.500709
    7139.5990  305753.800000  30532.500393
    7140.6340  305763.800000  31922.500579
    7141.6890  305752.800000  32637.499945
    7142.7630  305678.800000  32516.500801
    7143.8560  305695.800000  32243.500558
    7144.9680  305610.800000  32186.499582
    7146.0990  305606.800000  32837.498468
    7147.2490  305587.800000  34637.500860
    7148.4180  305587.800000  37417.500958
    7149.6060  305559.800000  40270.500530
    7150.8140  305478.800000  42560.499518
    7152.0410  305538.800000  44304.501038
    7153.2860  305426.800000  45812.498307
    7154.5510  305421.800000  47228.502272
    7155.8340  305421.800000  48854.498977
    7157.1370  305396.800000  50358.499571
    7158.4590  305365.800000  51368.497848
    7159.8000  305351.800000  51796.498711
    7161.1600  305302.800000  51566.501762
    7162.5390  305311.800000  50997.501917
    7163.9370  305243.800000  50308.497618
    7165.3540  305192.800000  49320.499602
    7166.7910  305207.800000  48102.500254
    7168.2460  305140.800000  46571.502020
    7169.7200  305085.800000  44818.502147
    7171.2140  304137.800000  42884.501410
    7172.7260  306263.800000  41310.500707
    7174.2580  305130.800000  39590.501847
    7175.8090  305066.800000  38299.501063
    7177.3780  305072.800000  37123.501648
    7178.9670  305038.800000  35829.500186
    7180.5750  305002.800000  34855.500450
    7182.2030  304963.800000  34385.500590
    7183.8490  304925.800000  34434.499984
    7185.5140  304938.800000  34839.500006
    7187.1980  304863.800000  35177.501612
    7188.9010  304881.800000  35654.499801
    7190.6240  304890.800000  36209.498710
    7192.3650  304873.800000  36924.501223
    7194.1260  304858.800000  37941.500712
    7195.9060  304809.800000  38986.501683
    7197.7050  304710.800000  40050.498888
    7199.5220  304715.800000  41202.500198
    7201.3590  304700.800000  42391.501741
    7203.2150  304672.800000  43547.500762
    7205.0900  305323.800000  44620.498132
    7206.9840  305493.800000  45302.498424
    7208.8970  306448.800000  45764.500582
    7210.8300  306554.800000  45785.499318
    7212.7810  306535.800000  45646.500793
    7214.7510  306468.800000  45300.499356
    7216.7410  306435.800000  44695.502072
    7218.7500  306404.800000  44052.499959
    7220.7770  306401.800000  43361.498348
    7222.8240  306373.800000  42847.501062
    7224.8900  306393.800000  42387.499798
    7226.9750  306407.800000  42367.501507
    7229.0790  306353.800000  42630.499304
    7231.2020  306266.800000  43082.501522
    7233.3440  306225.800000  43874.497921
    7235.5050  306138.800000  44754.499801
    7237.6850  306178.800000  45845.499875
    7239.8850  306179.800000  47202.497819
    7242.1030  306130.800000  48620.500434
    7244.3410  306168.800000  49877.499231
    7246.5970  306146.800000  50556.500137
    7248.8730  306121.800000  50687.501525
    7251.1670  306077.800000  50271.500094
    7253.4810  306031.800000  49511.497638
    7255.8140  306003.800000  48548.501063
    7258.1660  306090.800000  47550.499324
    7260.5370  305967.800000  46564.500904
    7262.9270  305928.800000  45804.497965
    7265.3360  305763.800000  45165.499431
    7267.7650  305955.800000  44988.502048
    7270.2120  306255.800000  45062.499343
    7272.6790  305977.800000  45158.501211
    7275.1640  305841.800000  45373.501843
    7277.6680  305761.800000  45682.498860
    7280.1920  305760.800000  46107.498633
    7282.7350  305710.800000  46607.499284
    7285.2970  305710.800000  47485.497899
    7287.8770  305644.800000  48577.499158
    7290.4780  305652.800000  49692.500047
    7293.0970  305662.800000  50657.501966
    7295.7350  305615.800000  51326.498436
    7298.3920  305586.800000  51976.498404
    7301.0680  305406.800000  52578.498290
    7303.7640  304375.800000  53065.501199
    7306.4780  306533.800000  54064.502616
    7309.2110  305485.800000  54410.502525
    7311.9640  305395.800000  54637.498910
    7314.7360  305456.800000  54601.500338
    7317.5260  305447.800000  54333.500922
    7320.3360  305374.800000  53887.501863
    7323.1650  305361.800000  53488.501368
    7326.0130  305367.800000  53219.498999
    7328.8800  305252.800000  53024.500788
    7331.7660  305275.800000  53203.502482
    7334.6710  305244.800000  53630.502228
    7337.5960  305293.800000  54176.497646
    7340.5390  305262.800000  54707.501828
    7343.5010  305189.800000  55435.499744
    7346.4830  305189.800000  56254.502265
    7349.4830  305151.800000  56997.497178
    7352.5030  305102.800000  57540.501226
    7355.5420  305087.800000  57999.500824
    7358.6000  304998.800000  58456.497327
    7361.6760  305114.800000  58686.498933
    7364.7720  304986.800000  58978.501549
    7367.8870  304947.800000  58995.502632
    7371.0210  304947.800000  59133.500871
    7374.1750  304944.800000  59415.502468
    7377.3470  304846.800000  59891.497811
    7380.5380  304837.800000  60338.497440
    7383.7490  304813.800000  60780.499060
    7386.9780  304857.800000  61126.497005
    7390.2270  304829.800000  61348.497981
    7393.4940  304775.800000  61552.497239
    7396.7810  304761.800000  61643.499860
    7400.0870  304713.800000  61986.497274
    7403.4120  304691.800000  62382.499163
    7406.7550  304696.800000  62909.499881
    7410.1190  304693.800000  63463.500026
    7413.5000  304048.800000  63939.499429
    7416.9020  305272.800000  64722.500203
    7420.3220  304599.800000  65161.498706
    7423.7610  304216.800000  65682.498513
    7427.2200  304758.800000  66287.500107
    7430.6970  304539.800000  66856.496875
    7434.1940  304486.800000  67329.497309
    7437.7090  304510.800000  67962.498099
    7441.2440  304411.800000  68283.502314
    7444.7980  304359.800000  68540.502931
    7448.3710  304376.800000  68725.499875
    7451.9620  304366.800000  68950.499805
    7455.5740  304345.800000  69246.496723
    7459.2040  304367.800000  69768.501397
    7462.8530  304329.800000  70315.501661
    7466.5210  304254.800000  71101.498195
    7470.2080  304188.800000  71819.502466
    7473.9150  304194.800000  72333.501204
    7477.6400  304382.800000  72788.503210
    7481.3850  304163.800000  73056.496910
    7485.1480  304179.800000  73619.502771
    7488.9310  304144.800000  74112.499612
    7492.7330  304106.800000  74662.499809
    7496.5540  304050.800000  75109.503300
    7500.3940  303975.800000  75633.498960
    7504.2530  303185.800000  75908.496304
    7508.1310  304749.800000  76671.496192
    7512.0280  303991.800000  77076.499400
    7515.9440  303960.800000  77561.498113
    7519.8790  303887.800000  77998.496771
    7523.8340  303899.800000  78589.503072
    7527.8070  303918.800000  79071.496365
    7531.8000  303835.800000  79669.499715
    7535.8120  303817.800000  80228.497295
    7539.8420  303839.800000  80846.499497
    7543.8920  303804.800000  81431.501129
    7547.9610  303846.800000  82142.498612
    7552.0490  303742.800000  82768.503017
    7556.1560  303691.800000  83532.499471
    7560.2820  303701.800000  84172.502892
    7564.4270  303620.800000  84700.504197
    7568.5910  303658.800000  85273.496986
    7572.7740  304274.800000  85864.497264
    7576.9770  305504.800000  86870.498823
    7581.1980  305528.800000  87430.495962
    7585.4390  305607.800000  88115.502346
    7589.6980  305218.800000  88546.496344
    7593.9770  305548.800000  89184.504131
    7598.2750  305415.800000  89670.498738
    7602.5920  305496.800000  90157.496670
    7606.9280  305332.800000  90851.502166
    7611.2830  305488.800000  91452.500450
    7615.6570  305359.800000  92143.500830
    7620.0500  305236.800000  92868.495799
    7624.4620  305235.800000  93562.502852
    7628.8940  305220.800000  94324.498501
    7633.3440  305195.800000  95200.504185
    7637.8130  305156.800000  95861.500138
    7642.3020  305086.800000  96670.503633
    7646.8100  305076.800000  97443.502468
    7651.3360  305143.800000  98209.498908
    7655.8820  305006.800000  98911.496093
    7660.4470  302796.800000  98846.501153
    7665.0300  306858.800000  100876.501066
    7669.6340  305007.800000  100945.498265
    7674.2550  304922.800000  101607.497815
    7678.8960  305005.800000  102309.495913
    7683.5570  305042.800000  102902.495540
    7688.2360  304850.800000  103635.504287
    7692.9350  304814.800000  104231.499183
    7697.6520  304803.800000  104953.499580
    7702.3890  304767.800000  105592.503080
    7707.1440  304762.800000  106346.504064
    7711.9190  304780.800000  107231.497957
    7716.7120  304750.800000  108086.495783
    7721.5250  304724.800000  108826.500356
    7726.3570  304576.800000  109737.502397
    7731.2080  304584.800000  110578.495768
    7736.0780  301246.800000  110425.497450
    7740.9670  308193.800000  113690.500207
    7745.8750  304662.800000  113291.499783
    7750.8030  304514.800000  113921.499490
    7755.7500  304575.800000  114804.499670
    7760.7150  304472.800000  115512.499674
    7765.6990  304424.800000  116558.500177
    7770.7030  304404.800000  117322.500172
    7775.7260  304096.800000  118075.500166
    7780.7670  304716.800000  119041.499864
    7785.8280  304375.800000  119781.500294
    7790.9080  304309.800000  120565.499726
    7796.0070  304313.800000  121521.500486
    7801.1250  304178.800000  122367.500546
    7806.2620  304294.800000  123285.500549
    7811.4180  304344.800000  124296.499846
    7816.5940  304272.800000  125181.500409
    7821.7880  304319.800000  126090.499881
    7827.0010  303536.800000  126841.499960
    7832.2340  304668.800000  128255.499593
    7837.4850  304126.800000  128908.499915
    7842.7560  304040.800000  130083.500126
    7848.0460  304050.800000  130992.500400
    7853.3540  304060.800000  132065.499970
    7858.6830  304916.800000  133434.500237
    7864.0300  305714.800000  134792.500304
    7869.3960  306109.800000  135932.500289
    7874.7810  306130.800000  136955.499460
    7880.1850  306127.800000  137942.500022
    7885.6080  306065.800000  138884.499869
    7891.0510  306162.800000  140005.499870
    7896.5120  306060.800000  140928.499360
    7901.9920  306063.800000  141939.499500
    7907.4920  306032.800000  142880.499884
    7913.0110  305880.800000  143876.500126
    7918.5480  305998.800000  145035.500049
    7924.1050  305981.800000  146162.499502
    7929.6810  305987.800000  147222.500589
    7935.2760  305900.800000  148260.500698
    7940.8900  305537.800000  149142.499671
    7946.5230  306231.800000  150581.499348
    7952.1750  305763.800000  151486.499454
    7957.8470  305752.800000  152684.500226
    7963.5370  305612.800000  153931.500457
    7969.2470  305998.800000  155167.500275
