# XDI/1.0
# Column.1: energy eV
# Column.2: i0
# Column.3: itrans
# Beamline.name: APS 13-BM-D
# Beamline.notes: vert slits = 2mm (at 45m)
# Beamline.collimation: none
# Beamline.focusing: no
# Beamline.harmonic_rejection: detuned 50%
# Facility.name: APS
# Facility.energy: 7.00 GeV
# Facility.xray_source: APS bending magnet
# Detector.I0: N2 15cm
# Detector.I1: N2 15cm
# Element.edge: K
# Element.symbol: Fe
# Mono.d_spacing: 3.13550
# Mono.name: Si(111)
# Mono.notes: unfocussed, detuned 50%
# Sample.formula: Fe
# Sample.name: Fe metal  Room Temperature
# Sample.prep: standard foil (Joe Wong boxed set)
# Sample.reference: none
# Sample.temperature: Room Temperature
# Scan.edge_energy: 7112.
# Scan.start_time: 2002-03-16 14:18:25
# ///
#    Note: mono d_spacing is nominal!
#     Energy drive values recorded (encoder used, not recorded)
#     348 E XMU I0
#-------------
#   energy   i0   itrans
    6962.0000  304129.500000  276384.099897
    6972.0000  306257.500000  281119.100113
    6982.0000  306236.500000  284051.099915
    6992.0000  306304.500000  286880.099936
    7002.0000  306229.500000  289768.099980
    7012.0000  306122.500000  292660.100083
    7022.0000  306056.500000  295290.100139
    7032.0000  305888.500000  298065.100132
    7042.0000  306258.500000  301272.100140
    7052.0000  305926.500000  303670.100011
    7062.0000  306011.500000  306648.099994
    7072.0000  305965.500000  309213.100087
    7082.0000  305934.500000  311244.099993
    7092.0000  305898.500000  312427.099881
    7092.5000  305588.500000  312248.099867
    7093.0000  305529.500000  312112.099941
    7093.5000  305537.500000  312101.099965
    7094.0000  305529.500000  312113.099950
    7094.5000  305487.500000  311938.099861
    7095.0000  305456.500000  311961.100124
    7095.5000  305459.500000  312040.100023
    7096.0000  305391.500000  311966.099996
    7096.5000  305332.500000  312035.100082
    7097.0000  305385.500000  311875.099936
    7097.5000  305329.500000  311714.099934
    7098.0000  305243.500000  311534.100063
    7098.5000  305244.500000  311466.099924
    7099.0000  305232.500000  311314.099981
    7099.5000  305171.500000  311055.099924
    7100.0000  305143.500000  310872.100060
    7100.5000  305154.500000  310682.099948
    7101.0000  305109.500000  310463.099950
    7101.5000  305144.500000  310179.100099
    7102.0000  305115.500000  309997.099954
    7102.5000  305014.500000  309510.099873
    7103.0000  304983.500000  309108.099962
    7103.5000  304989.500000  308596.099893
    7104.0000  305075.500000  307987.099993
    7104.5000  304971.500000  307469.100008
    7105.0000  304951.500000  306673.099986
    7105.5000  304932.500000  305995.099996
    7106.0000  304910.500000  304833.100001
    7106.5000  304864.500000  303619.100009
    7107.0000  304835.500000  302137.099993
    7107.5000  304834.500000  300258.100081
    7108.0000  304818.500000  297707.100077
    7108.5000  304815.500000  294210.099874
    7109.0000  304749.500000  289213.100012
    7109.5000  305161.500000  281522.100049
    7110.0000  306059.500000  267199.101096
    7110.5000  306222.500000  243698.099459
    7111.0000  306251.500000  212213.100280
    7111.5000  306211.500000  182318.099275
    7112.0000  306191.500000  162333.099377
    7112.5000  306188.500000  148118.099532
    7113.0000  306170.500000  137512.100425
    7113.5000  306139.500000  128948.100335
    7114.0000  306116.500000  121989.100241
    7114.5000  306119.500000  116688.099459
    7115.0000  306084.500000  113898.099841
    7115.5000  306002.500000  112197.102895
    7116.0000  305765.500000  110343.096234
    7116.5000  305382.500000  107610.097821
    7117.0000  305694.500000  102530.102382
    7117.5000  306367.500000  94608.096752
    7118.0000  306312.500000  86123.096085
    7118.5000  306028.500000  77019.099371
    7119.0000  305908.500000  69027.096998
    7119.5000  305826.500000  61711.101864
    7120.0000  305803.500000  54553.099976
    7120.5000  305797.500000  48621.101221
    7121.0000  305734.500000  43769.099532
    7121.5000  305720.500000  39615.101075
    7122.0000  305696.500000  36589.099921
    7122.5000  305657.500000  34159.099046
    7123.0000  305636.500000  32012.100993
    7123.5000  305609.500000  30349.099398
    7124.0000  305559.500000  28906.099330
    7124.5000  305583.500000  27616.100765
    7125.0000  305531.500000  26459.101017
    7125.5000  305628.500000  25318.098915
    7126.0000  305492.500000  24153.099810
    7126.5000  305469.500000  23050.100679
    7127.0000  305444.500000  21828.099173
    7127.5000  305425.500000  20479.100665
    7128.0000  305364.500000  19191.100290
    7128.5000  305400.500000  17866.099419
    7129.0000  305325.500000  16703.099828
    7129.5000  305372.500000  15735.099325
    7130.0000  305355.500000  15042.100529
    7130.5000  305270.500000  14698.100516
    7131.0000  305233.500000  14818.099273
    7131.5000  305277.500000  15330.099739
    7132.0000  305228.500000  16057.099311
    7132.8830  305226.500000  17839.100830
    7133.7850  305233.500000  19678.100300
    7134.7070  305187.500000  21168.100219
    7135.6470  305191.500000  22021.099203
    7136.6060  305195.500000  22244.101111
    7137.5840  305092.500000  21863.100549
    7138.5820  305076.500000  21109.100796
    7139.5990  305067.500000  20295.099716
    7140.6340  304998.500000  19760.100109
    7141.6890  305030.500000  19731.100009
    7142.7630  304934.500000  19999.100538
    7143.8560  304951.500000  20240.099240
    7144.9680  304895.500000  20144.099061
    7146.0990  304880.500000  19527.099066
    7147.2490  304898.500000  18545.100577
    7148.4180  304844.500000  17545.100033
    7149.6060  304862.500000  16871.099264
    7150.8140  305136.500000  16506.100131
    7152.0410  306049.500000  16279.099627
    7153.2860  306239.500000  16170.100286
    7154.5510  306207.500000  16288.099949
    7155.8340  306209.500000  16577.099724
    7157.1370  306201.500000  16794.100801
    7158.4590  306137.500000  16873.100162
    7159.8000  306137.500000  16912.100091
    7161.1600  306047.500000  17044.100271
    7162.5390  306099.500000  17262.099407
    7163.9370  306036.500000  17573.099159
    7165.3540  305963.500000  17816.099482
    7166.7910  305995.500000  18006.100119
    7168.2460  305901.500000  18211.099206
    7169.7200  305913.500000  18479.100342
    7171.2140  304892.500000  18891.100827
    7172.7260  307147.500000  19722.099090
    7174.2580  305945.500000  20486.099470
    7175.8090  305829.500000  21468.100960
    7177.3780  305715.500000  22435.100767
    7178.9670  305777.500000  23119.099944
    7180.5750  305728.500000  23320.100083
    7182.2030  305797.500000  23175.099809
    7183.8490  305706.500000  22774.099226
    7185.5140  305702.500000  22073.100756
    7187.1980  305698.500000  21164.099409
    7188.9010  305578.500000  20230.100143
    7190.6240  305568.500000  19280.100003
    7192.3650  305687.500000  18409.100566
    7194.1260  305638.500000  18077.099768
    7195.9060  305580.500000  18367.100472
    7197.7050  305499.500000  19079.100894
    7199.5220  305473.500000  20175.099214
    7201.3590  305493.500000  21487.101004
    7203.2150  305441.500000  22974.099459
    7205.0900  305402.500000  24388.099276
    7206.9840  305402.500000  25145.100809
    7208.8970  305358.500000  24649.100185
    7210.8300  305371.500000  22712.101046
    7212.7810  305284.500000  19918.099256
    7214.7510  305261.500000  17104.099751
    7216.7410  305267.500000  15026.099284
    7218.7500  305259.500000  13821.100340
    7220.7770  305208.500000  13529.100385
    7222.8240  305182.500000  14151.099982
    7224.8900  305178.500000  15626.099346
    7226.9750  305120.500000  17637.100751
    7229.0790  305134.500000  19958.099741
    7231.2020  305074.500000  22493.100305
    7233.3440  305011.500000  24850.100103
    7235.5050  305041.500000  26610.099733
    7237.6850  304990.500000  27485.099696
    7239.8850  304940.500000  27479.098898
    7242.1030  304917.500000  26720.098852
    7244.3410  304944.500000  25638.099141
    7246.5970  304999.500000  24688.099780
    7248.8730  304917.500000  24186.099038
    7251.1670  304847.500000  24355.099474
    7253.4810  304819.500000  24973.098816
    7255.8140  304773.500000  25454.101211
    7258.1660  305326.500000  25446.100159
    7260.5370  305561.500000  24940.100444
    7262.9270  306248.500000  24405.100904
    7265.3360  306031.500000  23971.099994
    7267.7650  306281.500000  23493.098889
    7270.2120  306539.500000  22659.099642
    7272.6790  306260.500000  21637.100283
    7275.1640  306170.500000  21034.100127
    7277.6680  306052.500000  20719.099497
    7280.1920  306096.500000  20279.100257
    7282.7350  306024.500000  19657.099369
    7285.2970  305999.500000  19085.100803
    7287.8770  306029.500000  18813.099376
    7290.4780  305956.500000  19281.099874
    7293.0970  306021.500000  20610.100289
    7295.7350  305937.500000  22410.099611
    7298.3920  305863.500000  24246.101074
    7301.0680  305755.500000  25819.100900
    7303.7640  304703.500000  27025.100239
    7306.4780  306863.500000  28036.098818
    7309.2110  305840.500000  28348.100445
    7311.9640  305749.500000  28401.098933
    7314.7360  305763.500000  28409.100311
    7317.5260  305777.500000  28529.099837
    7320.3360  305622.500000  28664.100331
    7323.1650  305642.500000  28791.100193
    7326.0130  305665.500000  28830.099612
    7328.8800  305564.500000  28964.098654
    7331.7660  305615.500000  29385.100962
    7334.6710  305574.500000  29969.098818
    7337.5960  305587.500000  30393.101348
    7340.5390  305534.500000  30272.100170
    7343.5010  305499.500000  29482.101251
    7346.4830  305532.500000  28244.099144
    7349.4830  305442.500000  26989.099030
    7352.5030  305379.500000  25906.100084
    7355.5420  305375.500000  25016.101234
    7358.6000  305374.500000  24267.099241
    7361.6760  305344.500000  23678.099457
    7364.7720  305346.500000  23465.099682
    7367.8870  305274.500000  23648.099962
    7371.0210  305298.500000  24388.099466
    7374.1750  305241.500000  25806.099187
    7377.3470  305185.500000  28030.098758
    7380.5380  305136.500000  30548.100822
    7383.7490  305144.500000  32665.100171
    7386.9780  305141.500000  33667.100137
    7390.2270  305142.500000  33628.098441
    7393.4940  305079.500000  33186.099496
    7396.7810  305064.500000  32805.101265
    7400.0870  305078.500000  32790.099343
    7403.4120  304995.500000  32883.099159
    7406.7550  304937.500000  32956.098839
    7410.1190  304921.500000  32928.099007
    7413.5000  304314.500000  32848.100050
    7416.9020  305525.500000  33142.098917
    7420.3220  304910.500000  33356.100892
    7423.7610  304572.500000  33941.099478
    7427.2200  305111.500000  34499.101616
    7430.6970  304848.500000  34620.099780
    7434.1940  305328.500000  34599.099170
    7437.7090  305607.500000  34268.100226
    7441.2440  306320.500000  33682.100016
    7444.7980  306258.500000  32871.098826
    7448.3710  306205.500000  32271.098461
    7451.9620  306312.500000  32014.099741
    7455.5740  306201.500000  32108.101516
    7459.2040  306214.500000  32328.100508
    7462.8530  306211.500000  32722.101606
    7466.5210  306174.500000  33433.099119
    7470.2080  306121.500000  34357.099618
    7473.9150  306058.500000  35335.098444
    7477.6400  306289.500000  36173.099438
    7481.3850  306011.500000  36830.101374
    7485.1480  305958.500000  37685.099283
    7488.9310  305996.500000  38614.098812
    7492.7330  305979.500000  39358.100298
    7496.5540  305909.500000  39682.100086
    7500.3940  305887.500000  39618.100109
    7504.2530  305079.500000  39377.098792
    7508.1310  306737.500000  39585.101905
    7512.0280  305960.500000  39660.098577
    7515.9440  305791.500000  39939.100129
    7519.8790  305728.500000  40208.099411
    7523.8340  305701.500000  40352.099907
    7527.8070  305764.500000  40407.099423
    7531.8000  305722.500000  40408.098700
    7535.8120  305651.500000  40553.101524
    7539.8420  305677.500000  40827.101960
    7543.8920  305730.500000  41187.099770
    7547.9610  305663.500000  41407.098342
    7552.0490  305609.500000  41453.098985
    7556.1560  305612.500000  41316.100210
    7560.2820  305575.500000  41057.100130
    7564.4270  305509.500000  40989.099877
    7568.5910  305473.500000  41259.101539
    7572.7740  305470.500000  41854.102087
    7576.9770  305446.500000  42701.098271
    7581.1980  305411.500000  43585.099947
    7585.4390  305462.500000  44318.097784
    7589.6980  305134.500000  44845.101504
    7593.9770  305488.500000  45196.101571
    7598.2750  305345.500000  45383.101512
    7602.5920  305337.500000  45608.099538
    7606.9280  305190.500000  46046.100149
    7611.2830  305318.500000  46576.098137
    7615.6570  305169.500000  47044.100014
    7620.0500  305193.500000  47223.101040
    7624.4620  305166.500000  47305.100814
    7628.8940  305116.500000  47442.097663
    7633.3440  305155.500000  47938.099396
    7637.8130  305168.500000  48484.098736
    7642.3020  305074.500000  49101.098589
    7646.8100  305010.500000  49621.097804
    7651.3360  304904.500000  49990.101350
    7655.8820  304861.500000  50297.097673
    7660.4470  302751.500000  50201.099909
    7665.0300  306822.500000  50989.101024
    7669.6340  304901.500000  50724.101562
    7674.2550  304834.500000  50750.100915
    7678.8960  305204.500000  50878.098380
    7683.5570  305797.500000  51161.102074
    7688.2360  306284.500000  51668.102003
    7692.9350  306320.500000  52164.101076
    7697.6520  306302.500000  52728.097652
    7702.3890  306269.500000  53224.101704
    7707.1440  306170.500000  53725.101744
    7711.9190  306161.500000  54266.100972
    7716.7120  306172.500000  54852.099802
    7721.5250  306103.500000  55372.101288
    7726.3570  306082.500000  55811.099951
    7731.2080  306077.500000  56154.102282
    7736.0780  302519.500000  55875.099752
    7740.9670  309811.500000  57638.102343
    7745.8750  306073.500000  57409.102402
    7750.8030  305927.500000  57750.097966
    7755.7500  305920.500000  58108.099729
    7760.7150  305892.500000  58644.097640
    7765.6990  305931.500000  59134.098493
    7770.7030  305978.500000  59693.100132
    7775.7260  305572.500000  60207.098842
    7780.7670  306116.500000  60789.097074
    7785.8280  305830.500000  61201.097778
    7790.9080  305725.500000  61613.101865
    7796.0070  305727.500000  61961.100839
    7801.1250  305708.500000  62331.102174
    7806.2620  305675.500000  62649.097872
    7811.4180  305609.500000  63032.101435
    7816.5940  305660.500000  63430.099792
    7821.7880  305596.500000  63830.102452
    7827.0010  305031.500000  64110.102061
    7832.2340  305981.500000  64732.101821
    7837.4850  305529.500000  65042.098987
    7842.7560  305547.500000  65550.100890
    7848.0460  305460.500000  66038.101705
    7853.3540  305518.500000  66502.100474
    7858.6830  305419.500000  67102.100092
    7864.0300  305407.500000  67609.097368
    7869.3960  305444.500000  68167.103337
    7874.7810  305402.500000  68825.098262
    7880.1850  305345.500000  69380.102740
    7885.6080  305342.500000  69966.097087
    7891.0510  305161.500000  70534.097450
    7896.5120  305210.500000  71057.101656
    7901.9920  305286.500000  71622.099599
    7907.4920  305313.500000  72219.097380
    7913.0110  305121.500000  72691.100131
    7918.5480  305068.500000  73222.096601
    7924.1050  305095.500000  73783.102528
    7929.6810  305105.500000  74326.103701
    7935.2760  305082.500000  74852.097399
    7940.8900  304758.500000  75196.099382
    7946.5230  305368.500000  75867.101419
    7952.1750  304971.500000  76276.098293
    7957.8470  305014.500000  76806.096342
    7963.5370  304902.500000  77322.103058
    7969.2470  305048.500000  77854.101408
