#XDI/1.1  GSE/1.0
# Column.1: energy eV
# Column.2: itrans
# Column.3: i0
# Scan.end_time: 2001-12-20 18:13:12
# Scan.start_time: 2001-12-20 18:09:27
# Element.symbol:  Fe
# Element.edge:  K
# Facility.Name:  APS
# Beamline.Name:  13-BM-D
# Beamline.xray_source:  bending magnet
# Mono.d_spacing:  3.13555
# Mono.name: Si 111
# Beamline.Storage_Ring_Current: 100.00965 || S:SRcurrentAI.VAL
# Beamline.Undulator_Energy: 7.3292813 || ID13:Energy.VAL
# Beamline.FOE_Mono_angle_readback: 16.077874 || 13IDA:m17.RBV
# Beamline.Undulator_Gap: 17.539750 || ID13:Gap.VAL
# Beamline.Undulator_Harmonic: 1.0000000 || ID13:HarmonicValue.VAL
# Beamline.FOE_H_Slit_Pos: -0.69999999 || 13IDA:m1.VAL
# Beamline.FOE_H_Slit_Wid: 0.75000000 || 13IDA:m2.VAL
# Beamline.FOE_H_Slit_Pos: -0.069999997 || 13IDA:m3.VAL
# Beamline.FOE_V_Slit_Wid: 0.50000000 || 13IDA:m4.VAL
# Beamline.Table_H_Slit_Pos: -150.00176 || 13IDC:m9.VAL
# Beamline.Table_H_Slit_Wid: 300.01103 || 13IDC:m10.VAL
# Beamline.Table_V_Slit_Pos: 149.99617 || 13IDC:m11.VAL
# Beamline.Table_V_Slit_Wid: 300.02738 || 13IDC:m12.VAL
# Beamline.I0_Amp_Sensitivity_units: 3 || 13IDC:A4sens_unit.VAL
# Beamline.I0_Amp_Sensitivity_value: 0 || 13IDC:A4sens_num.VAL
# Beamline.Pre_I0_Amp_Sensitivity_units: 1 || 13IDC:A2sens_unit.VAL
# Beamline.Pre_I0_Amp_Sensitivity_value: 0 || 13IDC:A2sens_num.VAL
# Beamline.PhotoDiode_Amp_Sensitivity_units: 1 || 13IDC:A5sens_unit.VAL
# Beamline.PhotoDiode_Amp_Sensitivity_value: 1 || 13IDC:A5sens_num.VAL
#-------------------------
#  energy  itrans  i0
    7062.003    192259.50    102436.50 
    7067.016    183078.50     97094.50 
    7072.014    181227.50     95700.50 
    7076.977    184592.50     97125.50 
    7081.990    185330.50     97073.50 
    7087.011    186633.50     97256.50 
    7091.975    187990.50     97453.50 
    7096.988    188630.50     97438.50 
    7102.010    189981.50     97618.50 
    7106.974    190851.50     97544.50 
    7107.531    191866.50     98014.50 
    7108.002    192563.50     98403.50 
    7108.516    192911.50     98519.50 
    7109.009    193787.50     98933.50 
    7109.523    193345.50     98702.50 
    7110.016    193659.50     98825.50 
    7110.509    193610.50     98731.50 
    7111.002    193740.50     98825.50 
    7111.517    193547.50     98667.50 
    7112.031    193229.50     98487.50 
    7112.503    192991.50     98444.50 
    7113.018    192542.50     98281.50 
    7113.512    192796.50     98397.50 
    7114.005    193240.50     98647.50 
    7114.520    192940.50     98417.50 
    7115.035    193304.50     98482.50 
    7115.529    193372.50     98485.50 
    7116.001    193767.50     98669.50 
    7116.517    194075.50     98791.50 
    7117.010    193914.50     98633.50 
    7117.504    193920.50     98598.50 
    7117.999    193246.50     98280.50 
    7118.536    193809.50     98616.50 
    7119.008    194174.50     98775.50 
    7119.503    193860.50     98645.50 
    7120.019    193819.50     98728.50 
    7120.513    193259.50     98602.50 
    7121.029    192799.50     98544.50 
    7121.523    192115.50     98471.50 
    7122.018    191593.50     98522.50 
    7122.535    190531.50     98383.50 
    7123.029    190128.50     98581.50 
    7123.524    189402.50     98552.50 
    7123.998    188573.50     98437.50 
    7124.536    188328.50     98703.50 
    7125.031    188049.50     99003.50 
    7125.504    186480.50     98713.50 
    7126.000    185126.50     98623.50 
    7126.517    183970.50     98645.50 
    7127.033    182690.50     98580.50 
    7127.507    181456.50     98522.50 
    7128.024    179928.50     98372.50 
    7128.520    179071.50     98411.50 
    7129.016    178499.50     98440.50 
    7129.511    178174.50     98487.50 
    7130.029    177849.50     98322.50 
    7130.503    178585.50     98662.50 
    7130.999    178581.50     98534.50 
    7131.495    178645.50     98381.50 
    7132.034    179334.50     98624.50 
    7132.509    179258.50     98519.50 
    7133.027    178992.50     98267.50 
    7133.523    179538.50     98456.50 
    7133.998    180064.50     98663.50 
    7134.495    180153.50     98470.50 
    7135.034    180194.50     98482.50 
    7135.531    181170.50     98822.50 
    7136.006    180998.50     98612.50 
    7136.502    181028.50     98434.50 
    7137.021    181460.50     98506.50 
    7139.009    182479.50     98324.50 
    7140.998    183714.50     98361.50 
    7143.010    184428.50     98301.50 
    7145.002    185749.50     98677.50 
    7147.016    186029.50     98472.50 
    7149.032    187048.50     98534.50 
    7151.005    187423.50     98086.50 
    7153.023    188773.50     98373.50 
    7155.021    189292.50     98259.50 
    7156.997    189358.50     97960.50 
    7158.997    189698.50     97841.50 
    7160.998    191838.50     98718.50 
    7162.978    192342.50     98953.50 
    7165.003    191746.50     98601.50 
    7167.007    190906.50     98218.50 
    7169.013    191569.50     98595.50 
    7170.998    191504.50     98682.50 
    7173.027    191032.50     98511.50 
    7175.014    190542.50     98263.50 
    7177.002    190370.50     98165.50 
    7179.014    191241.50     98461.50 
    7181.004    191310.50     98241.50 
    7182.996    191088.50     97888.50 
    7185.033    191955.50     98155.50 
    7187.005    193386.50     98710.50 
    7189.022    193045.50     98341.50 
    7190.997    193504.50     98399.50 
    7192.994    193632.50     98318.50 
    7195.037    193708.50     98254.50 
    7197.015    194199.50     98266.50 
    7199.016    194329.50     98196.50 
    7200.996    195398.50     98427.50 
    7202.999    196134.50     98595.50 
    7205.004    195627.50     98135.50 
    7207.009    196493.50     98288.50 
    7208.972    196281.50     97932.50 
    7210.980    196943.50     98065.50 
    7213.011    198030.50     98391.50 
    7215.000    198184.50     98244.50 
    7217.011    199312.50     98613.50 
    7219.001    199861.50     98658.50 
    7221.037    199472.50     98338.50 
    7223.008    200138.50     98498.50 
    7225.002    200603.50     98626.50 
    7226.997    200495.50     98435.50 
    7229.015    200703.50     98364.50 
    7231.013    200988.50     98298.50 
    7233.033    201485.50     98451.50 
    7235.033    201845.50     98557.50 
    7237.034    202076.50     98482.50 
    7239.036    202230.50     98367.50 
    7240.995    202439.50     98219.50 
    7242.999    201949.50     97975.50 
    7244.982    203014.50     98282.50 
    7247.011    203736.50     98395.50 
