#XDI/1.1  GSE/1.0
# Column.1: energy eV
# Column.2: itrans
# Column.3: i0
# Scan.end_time: 2001-12-20 19:24:23
# Scan.start_time: 2001-12-20 19:20:41
# Element.symbol:  Fe
# Element.edge:  K
# Facility.Name:  APS
# Beamline.Name:  13-BM-D
# Beamline.xray_source:  bending magnet
# Mono.dspacing:  3.13555
# Mono.name: Si 111
# Beamline.Storage_Ring_Current: 96.500806 || S:SRcurrentAI.VAL
# Beamline.Undulator_Energy: 7.3286040 || ID13:Energy.VAL
# Beamline.FOE_Mono_angle_readback: 16.077924 || 13IDA:m17.RBV
# Beamline.Undulator_Gap: 17.538750 || ID13:Gap.VAL
# Beamline.Undulator_Harmonic: 1.0000000 || ID13:HarmonicValue.VAL
# Beamline.FOE_H_Slit_Pos: -0.69999999 || 13IDA:m1.VAL
# Beamline.FOE_H_Slit_Wid: 0.75000000 || 13IDA:m2.VAL
# Beamline.FOE_H_Slit_Pos: -0.069999997 || 13IDA:m3.VAL
# Beamline.FOE_V_Slit_Wid: 0.50000000 || 13IDA:m4.VAL
# Beamline.Table_H_Slit_Pos: -150.00176 || 13IDC:m9.VAL
# Beamline.Table_H_Slit_Wid: 300.01103 || 13IDC:m10.VAL
# Beamline.Table_V_Slit_Pos: 149.99617 || 13IDC:m11.VAL
# Beamline.Table_V_Slit_Wid: 300.02738 || 13IDC:m12.VAL
# Beamline.I0_Amp_Sensitivity_units: 3 || 13IDC:A4sens_unit.VAL
# Beamline.I0_Amp_Sensitivity_value: 0 || 13IDC:A4sens_num.VAL
# Beamline.Pre_I0_Amp_Sensitivity_units: 1 || 13IDC:A2sens_unit.VAL
# Beamline.Pre_I0_Amp_Sensitivity_value: 0 || 13IDC:A2sens_num.VAL
# Beamline.PhotoDiode_Amp_Sensitivity_units: 1 || 13IDC:A5sens_unit.VAL
# Beamline.PhotoDiode_Amp_Sensitivity_value: 1 || 13IDC:A5sens_num.VAL
#-------------------------
#  energy  itrans  i0
    7062.003    188247.50     98549.50 
    7067.016    181615.50     94360.50 
    7072.014    180532.50     93331.50 
    7076.977    183616.50     94462.50 
    7081.990    183211.50     93786.50 
    7086.989    184139.50     93797.50 
    7091.996    184701.50     93663.50 
    7096.988    186590.50     94101.50 
    7102.010    187226.50     93983.50 
    7106.974    188285.50     94198.50 
    7107.509    188981.50     94448.50 
    7108.002    189348.50     94544.50 
    7108.495    190232.50     94904.50 
    7109.009    190544.50     95098.50 
    7109.523    190413.50     95050.50 
    7110.016    190469.50     95156.50 
    7110.509    190239.50     95000.50 
    7111.023    189545.50     94748.50 
    7111.517    190379.50     95194.50 
    7112.010    189931.50     94997.50 
    7112.503    189922.50     95078.50 
    7113.018    189860.50     95014.50 
    7113.512    190124.50     95114.50 
    7114.005    190657.50     95378.50 
    7114.520    190152.50     95166.50 
    7115.035    189915.50     94940.50 
    7115.507    190141.50     95102.50 
    7116.001    189871.50     95058.50 
    7116.517    190057.50     95242.50 
    7117.010    188992.50     94939.50 
    7117.526    188428.50     95180.50 
    7118.020    186397.50     94711.50 
    7118.536    185651.50     95165.50 
    7119.030    183206.50     95093.50 
    7119.524    181469.50     94884.50 
    7119.997    180120.50     95068.50 
    7120.513    178008.50     94806.50 
    7121.029    176693.50     94910.50 
    7121.523    175674.50     94939.50 
    7121.997    174687.50     95169.50 
    7122.535    173220.50     95243.50 
    7123.029    171661.50     95211.50 
    7123.502    169233.50     94703.50 
    7123.998    168005.50     95060.50 
    7124.536    166717.50     95219.50 
    7125.009    165370.50     95080.50 
    7125.504    164839.50     95300.50 
    7126.021    163238.50     94847.50 
    7126.517    162940.50     95396.50 
    7127.012    162741.50     95358.50 
    7127.486    161281.50     95024.50 
    7128.024    160738.50     95090.50 
    7128.499    160255.50     95044.50 
    7129.016    159293.50     94742.50 
    7129.533    159682.50     94749.50 
    7130.029    160317.50     94779.50 
    7130.503    161884.50     94944.50 
    7131.021    162952.50     95227.50 
    7131.495    164001.50     95178.50 
    7132.013    164630.50     95058.50 
    7132.531    164837.50     95017.50 
    7133.027    165861.50     94946.50 
    7133.501    166766.50     95189.50 
    7133.998    167349.50     95094.50 
    7134.495    167504.50     95054.50 
    7135.034    167690.50     94900.50 
    7135.509    167684.50     94918.50 
    7136.006    168440.50     94981.50 
    7136.524    168702.50     94907.50 
    7137.000    169019.50     94999.50 
    7139.031    168959.50     94690.50 
    7141.020    169215.50     94544.50 
    7143.010    170625.50     94557.50 
    7145.023    172194.50     94936.50 
    7146.995    173724.50     94738.50 
    7149.010    175388.50     94999.50 
    7151.005    176265.50     95025.50 
    7153.001    176250.50     94689.50 
    7154.999    177062.50     94630.50 
    7156.997    176915.50     94559.50 
    7159.019    175852.50     94097.50 
    7160.998    178425.50     95294.50 
    7163.021    178529.50     95424.50 
    7165.003    176701.50     94620.50 
    7167.007    177113.50     94881.50 
    7168.991    176342.50     94585.50 
    7170.976    176279.50     94628.50 
    7173.005    176345.50     94852.50 
    7174.992    176236.50     94712.50 
    7177.002    177044.50     94808.50 
    7179.014    177784.50     94822.50 
    7180.982    178425.50     94829.50 
    7182.996    178420.50     94588.50 
    7185.011    179981.50     94968.50 
    7187.027    179926.50     94786.50 
    7188.979    180388.50     94665.50 
    7190.975    180939.50     94647.50 
    7192.972    180809.50     94507.50 
    7195.015    181802.50     94752.50 
    7197.015    181590.50     94524.50 
    7198.994    182782.50     94802.50 
    7200.996    182924.50     94735.50 
    7202.977    182742.50     94610.50 
    7205.004    183492.50     94802.50 
    7206.987    183705.50     94621.50 
    7208.994    184027.50     94497.50 
    7210.980    184658.50     94733.50 
    7212.989    185461.50     94735.50 
    7214.977    185682.50     94718.50 
    7217.011    186095.50     94779.50 
    7218.979    187356.50     95087.50 
    7221.015    187785.50     95046.50 
    7223.008    187856.50     94733.50 
    7225.002    187764.50     94549.50 
    7226.997    187870.50     94427.50 
    7229.015    188311.50     94486.50 
    7231.013    189211.50     94852.50 
    7233.011    188983.50     94930.50 
    7235.033    189917.50     94937.50 
    7237.034    189651.50     94854.50 
    7239.036    189258.50     94484.50 
    7240.995    189476.50     94549.50 
    7242.999    190005.50     94695.50 
    7245.004    190433.50     94764.50 
    7247.011    190327.50     94601.50 
