#XDI/1.1  GSE/1.0
# Column.1: energy eV
# Column.2: itrans
# Column.3: i0
# Scan.end_time: 2001-12-20 19:10:10
# Scan.start_time: 2001-12-20 19:06:28
# Element.symbol:  Fe
# Element.edge:  K
# Facility.Name:  APS
# Beamline.Name:  13-BM-D
# Beamline.xray_source:  bending magnet
# Mono.dspacing:  3.13555
# Mono.name: Si 111
# Beamline.Storage_Ring_Current: 97.185009 || S:SRcurrentAI.VAL
# Beamline.Undulator_Energy: 7.3287649 || ID13:Energy.VAL
# Beamline.FOE_Mono_angle_readback: 16.077874 || 13IDA:m17.RBV
# Beamline.Undulator_Gap: 17.539000 || ID13:Gap.VAL
# Beamline.Undulator_Harmonic: 1.0000000 || ID13:HarmonicValue.VAL
# Beamline.FOE_H_Slit_Pos: -0.69999999 || 13IDA:m1.VAL
# Beamline.FOE_H_Slit_Wid: 0.75000000 || 13IDA:m2.VAL
# Beamline.FOE_H_Slit_Pos: -0.069999997 || 13IDA:m3.VAL
# Beamline.FOE_V_Slit_Wid: 0.50000000 || 13IDA:m4.VAL
# Beamline.Table_H_Slit_Pos: -150.00176 || 13IDC:m9.VAL
# Beamline.Table_H_Slit_Wid: 300.01103 || 13IDC:m10.VAL
# Beamline.Table_V_Slit_Pos: 149.99617 || 13IDC:m11.VAL
# Beamline.Table_V_Slit_Wid: 300.02738 || 13IDC:m12.VAL
# Beamline.I0_Amp_Sensitivity_units: 3 || 13IDC:A4sens_unit.VAL
# Beamline.I0_Amp_Sensitivity_value: 0 || 13IDC:A4sens_num.VAL
# Beamline.Pre_I0_Amp_Sensitivity_units: 1 || 13IDC:A2sens_unit.VAL
# Beamline.Pre_I0_Amp_Sensitivity_value: 0 || 13IDC:A2sens_num.VAL
# Beamline.PhotoDiode_Amp_Sensitivity_units: 1 || 13IDC:A5sens_unit.VAL
# Beamline.PhotoDiode_Amp_Sensitivity_value: 1 || 13IDC:A5sens_num.VAL
#-------------------------
#  energy  itrans  i0
    7062.003    185267.50     99816.50 
    7067.016    177083.50     94934.50 
    7072.014    176460.50     94175.50 
    7076.999    178734.50     94899.50 
    7081.990    179086.50     94644.50 
    7087.011    179959.50     94682.50 
    7091.975    180114.50     94369.50 
    7096.988    182175.50     95062.50 
    7102.010    181917.50     94558.50 
    7106.974    182541.50     94591.50 
    7107.509    183913.50     95257.50 
    7108.023    184567.50     95555.50 
    7108.495    184931.50     95809.50 
    7109.009    184701.50     95683.50 
    7109.523    184413.50     95496.50 
    7109.995    184741.50     95693.50 
    7110.509    184417.50     95621.50 
    7111.002    184810.50     95929.50 
    7111.495    184123.50     95677.50 
    7112.010    184230.50     95742.50 
    7112.503    184777.50     96032.50 
    7113.018    184537.50     95916.50 
    7113.512    184221.50     95759.50 
    7114.005    184056.50     95702.50 
    7114.520    183854.50     95615.50 
    7115.035    184059.50     95838.50 
    7115.486    183745.50     95807.50 
    7116.001    183683.50     95953.50 
    7116.495    182204.50     95484.50 
    7117.010    181559.50     95653.50 
    7117.504    179888.50     95529.50 
    7118.020    178802.50     95934.50 
    7118.514    176313.50     95830.50 
    7119.008    173667.50     95917.50 
    7119.524    170645.50     95902.50 
    7120.019    167574.50     95863.50 
    7120.513    165427.50     96195.50 
    7121.029    162707.50     95794.50 
    7121.523    160873.50     95770.50 
    7122.018    158507.50     95585.50 
    7122.535    156261.50     95649.50 
    7123.029    153851.50     95605.50 
    7123.524    151048.50     95385.50 
    7123.998    149295.50     95579.50 
    7124.536    147499.50     95691.50 
    7125.009    145983.50     95502.50 
    7125.504    144970.50     95681.50 
    7126.021    144529.50     96022.50 
    7126.517    143391.50     95889.50 
    7127.012    142379.50     95767.50 
    7127.507    141732.50     95839.50 
    7128.024    140533.50     95718.50 
    7128.520    139434.50     95553.50 
    7129.016    139042.50     95631.50 
    7129.533    139237.50     95607.50 
    7130.029    139932.50     95621.50 
    7130.503    141092.50     95625.50 
    7131.021    142078.50     95761.50 
    7131.517    142960.50     95702.50 
    7132.034    143534.50     95459.50 
    7132.531    144975.50     95734.50 
    7133.027    145823.50     95594.50 
    7133.523    146658.50     95672.50 
    7133.998    147807.50     95793.50 
    7134.495    149025.50     96174.50 
    7135.013    148975.50     95868.50 
    7135.509    149265.50     95878.50 
    7136.006    148667.50     95434.50 
    7136.524    149745.50     95933.50 
    7137.000    149651.50     95811.50 
    7139.009    149262.50     95342.50 
    7140.998    149800.50     95392.50 
    7143.010    150275.50     95150.50 
    7145.002    152370.50     95522.50 
    7146.973    154039.50     95493.50 
    7148.988    155846.50     95761.50 
    7150.983    156738.50     95641.50 
    7153.001    157359.50     95637.50 
    7154.999    157857.50     95768.50 
    7157.019    157469.50     95550.50 
    7159.019    156132.50     94861.50 
    7160.998    157713.50     96173.50 
    7163.000    156396.50     96000.50 
    7164.981    154916.50     95616.50 
    7167.007    153809.50     95510.50 
    7169.013    152686.50     95266.50 
    7170.998    152503.50     95509.50 
    7173.005    152330.50     95579.50 
    7175.014    152750.50     95694.50 
    7176.980    152807.50     95566.50 
    7179.014    153518.50     95619.50 
    7181.004    154296.50     95837.50 
    7183.018    154136.50     95373.50 
    7185.011    154700.50     95420.50 
    7187.027    155256.50     95478.50 
    7188.979    155070.50     95087.50 
    7190.997    155965.50     95381.50 
    7192.950    155930.50     95166.50 
    7195.015    156544.50     95444.50 
    7197.037    156315.50     95219.50 
    7198.994    156717.50     95351.50 
    7200.996    157250.50     95583.50 
    7202.999    157599.50     95590.50 
    7205.004    157301.50     95337.50 
    7207.009    157558.50     95319.50 
    7208.972    157560.50     95231.50 
    7210.980    157892.50     95227.50 
    7213.011    158761.50     95493.50 
    7215.000    158681.50     95165.50 
    7217.011    159514.50     95477.50 
    7219.001    159986.50     95505.50 
    7221.015    160885.50     95807.50 
    7223.008    160978.50     95636.50 
    7224.979    161369.50     95617.50 
    7226.997    160951.50     95325.50 
    7229.015    161390.50     95386.50 
    7231.035    161240.50     95296.50 
    7233.033    161576.50     95485.50 
    7235.033    160684.50     95181.50 
    7237.012    161149.50     95473.50 
    7239.036    160893.50     95394.50 
    7240.995    160321.50     95047.50 
    7242.999    160280.50     94927.50 
    7245.004    160825.50     95317.50 
    7247.011    161096.50     95468.50 
