#XDI/1.1  GSE/1.0
# Column.1: energy eV
# Column.2: itrans
# Column.3: i0
# Scan.end_time: 2001-12-20 18:17:00
# Scan.start_time: 2001-12-20 18:13:17
# Element.symbol:  Fe
# Element.edge:  K
# Facility.Name:  APS
# Beamline.Name:  13-BM-D
# Beamline.xray_source:  bending magnet
# Mono.d_spacing:  3.13555
# Mono.name: Si 111
# Beamline.Storage_Ring_Current: 99.813955 || S:SRcurrentAI.VAL
# Beamline.Undulator_Energy: 7.3282607 || ID13:Energy.VAL
# Beamline.FOE_Mono_angle_readback: 16.077874 || 13IDA:m17.RBV
# Beamline.Undulator_Gap: 17.538250 || ID13:Gap.VAL
# Beamline.Undulator_Harmonic: 1.0000000 || ID13:HarmonicValue.VAL
# Beamline.FOE_H_Slit_Pos: -0.69999999 || 13IDA:m1.VAL
# Beamline.FOE_H_Slit_Wid: 0.75000000 || 13IDA:m2.VAL
# Beamline.FOE_H_Slit_Pos: -0.069999997 || 13IDA:m3.VAL
# Beamline.FOE_V_Slit_Wid: 0.50000000 || 13IDA:m4.VAL
# Beamline.Table_H_Slit_Pos: -150.00176 || 13IDC:m9.VAL
# Beamline.Table_H_Slit_Wid: 300.01103 || 13IDC:m10.VAL
# Beamline.Table_V_Slit_Pos: 149.99617 || 13IDC:m11.VAL
# Beamline.Table_V_Slit_Wid: 300.02738 || 13IDC:m12.VAL
# Beamline.I0_Amp_Sensitivity_units: 3 || 13IDC:A4sens_unit.VAL
# Beamline.I0_Amp_Sensitivity_value: 0 || 13IDC:A4sens_num.VAL
# Beamline.Pre_I0_Amp_Sensitivity_units: 1 || 13IDC:A2sens_unit.VAL
# Beamline.Pre_I0_Amp_Sensitivity_value: 0 || 13IDC:A2sens_num.VAL
# Beamline.PhotoDiode_Amp_Sensitivity_units: 1 || 13IDC:A5sens_unit.VAL
# Beamline.PhotoDiode_Amp_Sensitivity_value: 1 || 13IDC:A5sens_num.VAL
#-------------------------
#  energy  itrans  i0
    7061.982    189965.50    102682.50 
    7067.016    180804.50     97255.50 
    7072.014    179619.50     96110.50 
    7076.977    182344.50     97057.50 
    7082.011    183058.50     96961.50 
    7087.011    183899.50     96948.50 
    7091.975    184716.50     96798.50 
    7096.988    186685.50     97309.50 
    7101.988    187920.50     97621.50 
    7106.974    188763.50     97522.50 
    7107.531    189687.50     97994.50 
    7108.002    190037.50     98111.50 
    7108.495    190648.50     98434.50 
    7109.030    190260.50     98244.50 
    7109.502    190403.50     98327.50 
    7109.995    190071.50     98135.50 
    7110.531    190492.50     98312.50 
    7111.002    190838.50     98446.50 
    7111.495    191147.50     98627.50 
    7112.031    190551.50     98394.50 
    7112.503    190690.50     98461.50 
    7112.997    190693.50     98425.50 
    7113.512    190365.50     98252.50 
    7114.026    190687.50     98421.50 
    7114.499    190844.50     98400.50 
    7115.014    191012.50     98380.50 
    7115.529    191167.50     98404.50 
    7116.022    191596.50     98604.50 
    7116.495    190703.50     98152.50 
    7117.032    190991.50     98321.50 
    7117.526    191070.50     98410.50 
    7117.999    190824.50     98227.50 
    7118.514    191208.50     98420.50 
    7119.008    190825.50     98269.50 
    7119.503    191099.50     98389.50 
    7119.997    190565.50     98274.50 
    7120.535    190739.50     98497.50 
    7121.029    189616.50     98102.50 
    7121.502    189533.50     98281.50 
    7122.018    188803.50     98255.50 
    7122.535    187958.50     98207.50 
    7123.008    187132.50     98177.50 
    7123.502    186507.50     98296.50 
    7124.019    186454.50     98601.50 
    7124.536    185673.50     98568.50 
    7125.009    184644.50     98560.50 
    7125.526    183506.50     98393.50 
    7126.021    182265.50     98363.50 
    7126.495    181523.50     98502.50 
    7127.033    180063.50     98429.50 
    7127.529    178578.50     98181.50 
    7128.003    177712.50     98369.50 
    7128.520    176277.50     98345.50 
    7129.016    175699.50     98182.50 
    7129.533    175676.50     98399.50 
    7130.007    175350.50     98245.50 
    7130.503    175467.50     98237.50 
    7131.021    176228.50     98573.50 
    7131.495    176264.50     98402.50 
    7132.013    176156.50     98235.50 
    7132.531    176428.50     98321.50 
    7133.027    176703.50     98485.50 
    7133.501    177309.50     98598.50 
    7134.020    177512.50     98557.50 
    7134.516    177195.50     98193.50 
    7135.034    177172.50     98050.50 
    7135.509    176960.50     97821.50 
    7136.027    177915.50     98156.50 
    7136.502    177961.50     98067.50 
    7137.000    178434.50     98254.50 
    7139.009    179430.50     97980.50 
    7141.020    180823.50     98041.50 
    7142.989    181243.50     97891.50 
    7145.002    182813.50     98330.50 
    7146.995    183454.50     98334.50 
    7148.988    184686.50     98543.50 
    7151.005    185378.50     98260.50 
    7153.001    185996.50     98070.50 
    7154.999    186817.50     98162.50 
    7157.019    187104.50     97921.50 
    7158.997    186840.50     97517.50 
    7160.998    188591.50     98266.50 
    7163.000    189061.50     98427.50 
    7165.003    188973.50     98410.50 
    7167.007    188945.50     98478.50 
    7168.991    187630.50     97879.50 
    7170.998    188239.50     98254.50 
    7173.005    188498.50     98451.50 
    7175.014    187990.50     98206.50 
    7177.002    187626.50     98013.50 
    7178.992    187823.50     97943.50 
    7181.004    187994.50     97812.50 
    7182.996    188049.50     97687.50 
    7185.011    189068.50     97985.50 
    7187.005    189534.50     98052.50 
    7189.022    189506.50     97835.50 
    7190.997    189946.50     97926.50 
    7192.994    189985.50     97751.50 
    7195.037    191097.50     98153.50 
    7197.037    190813.50     97841.50 
    7199.016    192254.50     98260.50 
    7200.996    192242.50     98130.50 
    7203.021    192479.50     98014.50 
    7204.981    192953.50     97982.50 
    7207.031    193155.50     97892.50 
    7208.994    193413.50     97788.50 
    7211.002    194281.50     98005.50 
    7213.011    195355.50     98267.50 
    7215.000    195349.50     98083.50 
    7217.011    195753.50     98126.50 
    7218.979    196332.50     98196.50 
    7221.015    196451.50     98109.50 
    7223.008    197120.50     98241.50 
    7224.979    196693.50     97994.50 
    7226.997    197043.50     98005.50 
    7229.015    197027.50     97879.50 
    7231.013    196778.50     97548.50 
    7233.011    197536.50     97794.50 
    7235.011    197934.50     97840.50 
    7237.012    198916.50     98113.50 
    7239.036    198680.50     97836.50 
    7240.995    199115.50     97931.50 
    7242.999    199670.50     98041.50 
    7245.026    200035.50     98064.50 
    7247.011    200697.50     98189.50 
