#XDI/1.1  GSE/1.0
# Column.1: energy eV
# Column.2: itrans
# Column.3: i0
# Scan.end_time: 2001-12-20 18:50:02
# Scan.start_time: 2001-12-20 18:46:18
# Element.symbol:  Fe
# Element.edge:  K
# Facility.Name:  APS
# Beamline.Name:  13-BM-D
# Beamline.xray_source:  bending magnet
# Mono.d_spacing:  3.13555
# Mono.name: Si 111
# Beamline.Storage_Ring_Current: 98.168832 || S:SRcurrentAI.VAL
# Beamline.Undulator_Energy: 7.3287702 || ID13:Energy.VAL
# Beamline.FOE_Mono_angle_readback: 16.077924 || 13IDA:m17.RBV
# Beamline.Undulator_Gap: 17.539000 || ID13:Gap.VAL
# Beamline.Undulator_Harmonic: 1.0000000 || ID13:HarmonicValue.VAL
# Beamline.FOE_H_Slit_Pos: -0.69999999 || 13IDA:m1.VAL
# Beamline.FOE_H_Slit_Wid: 0.75000000 || 13IDA:m2.VAL
# Beamline.FOE_H_Slit_Pos: -0.069999997 || 13IDA:m3.VAL
# Beamline.FOE_V_Slit_Wid: 0.50000000 || 13IDA:m4.VAL
# Beamline.Table_H_Slit_Pos: -150.00176 || 13IDC:m9.VAL
# Beamline.Table_H_Slit_Wid: 300.01103 || 13IDC:m10.VAL
# Beamline.Table_V_Slit_Pos: 149.99617 || 13IDC:m11.VAL
# Beamline.Table_V_Slit_Wid: 300.02738 || 13IDC:m12.VAL
# Beamline.I0_Amp_Sensitivity_units: 3 || 13IDC:A4sens_unit.VAL
# Beamline.I0_Amp_Sensitivity_value: 0 || 13IDC:A4sens_num.VAL
# Beamline.Pre_I0_Amp_Sensitivity_units: 1 || 13IDC:A2sens_unit.VAL
# Beamline.Pre_I0_Amp_Sensitivity_value: 0 || 13IDC:A2sens_num.VAL
# Beamline.PhotoDiode_Amp_Sensitivity_units: 1 || 13IDC:A5sens_unit.VAL
# Beamline.PhotoDiode_Amp_Sensitivity_value: 1 || 13IDC:A5sens_num.VAL
#-------------------------
#  energy  itrans  i0
    7062.003    176134.50    100531.50 
    7067.016    167682.50     95060.50 
    7072.014    166854.50     94320.50 
    7076.999    169823.50     95690.50 
    7081.990    170520.50     95435.50 
    7087.011    172217.50     95800.50 
    7091.996    172388.50     95424.50 
    7096.988    174189.50     95824.50 
    7102.031    174634.50     95493.50 
    7106.996    175380.50     95594.50 
    7107.509    175901.50     95948.50 
    7108.023    176384.50     96282.50 
    7108.495    176801.50     96557.50 
    7109.030    177058.50     96759.50 
    7109.523    176975.50     96736.50 
    7109.995    176950.50     96766.50 
    7110.509    176584.50     96833.50 
    7111.023    175947.50     96829.50 
    7111.517    175983.50     96773.50 
    7112.010    175358.50     96551.50 
    7112.503    176273.50     96802.50 
    7112.997    175927.50     96783.50 
    7113.512    176056.50     96765.50 
    7114.026    175615.50     96614.50 
    7114.520    175695.50     96683.50 
    7115.014    175553.50     96745.50 
    7115.529    174905.50     96727.50 
    7116.022    174000.50     96758.50 
    7116.495    172949.50     96805.50 
    7117.032    170716.50     96801.50 
    7117.504    168397.50     96983.50 
    7117.999    165176.50     97006.50 
    7118.514    161811.50     97015.50 
    7119.030    159283.50     96665.50 
    7119.503    156314.50     96825.50 
    7119.997    151746.50     96658.50 
    7120.513    146474.50     96689.50 
    7121.029    140456.50     96396.50 
    7121.502    134071.50     96548.50 
    7122.018    128889.50     96774.50 
    7122.535    124624.50     96830.50 
    7123.029    121462.50     96807.50 
    7123.502    119863.50     97054.50 
    7124.019    118891.50     96902.50 
    7124.514    119083.50     97060.50 
    7125.009    119992.50     96968.50 
    7125.526    120198.50     96801.50 
    7126.021    121115.50     96995.50 
    7126.495    121244.50     96904.50 
    7127.012    123647.50     96828.50 
    7127.529    125939.50     96572.50 
    7128.003    128261.50     96595.50 
    7128.499    130487.50     96610.50 
    7129.016    131992.50     96601.50 
    7129.533    133311.50     96640.50 
    7130.029    134373.50     96670.50 
    7130.503    135078.50     96839.50 
    7131.021    135004.50     96672.50 
    7131.495    134885.50     96630.50 
    7132.013    133527.50     96667.50 
    7132.531    131944.50     96723.50 
    7133.027    131329.50     96683.50 
    7133.501    130171.50     96496.50 
    7133.998    129715.50     96814.50 
    7134.516    129542.50     96850.50 
    7135.013    129961.50     96941.50 
    7135.509    128919.50     96782.50 
    7136.027    129248.50     96827.50 
    7136.502    129528.50     96878.50 
    7137.021    130155.50     96771.50 
    7139.009    133841.50     96512.50 
    7141.020    138677.50     96605.50 
    7143.010    142528.50     96431.50 
    7144.980    146253.50     96578.50 
    7146.973    148653.50     97049.50 
    7149.010    149150.50     96838.50 
    7151.005    148126.50     96641.50 
    7153.001    148073.50     96637.50 
    7155.021    145883.50     96408.50 
    7157.019    143488.50     96363.50 
    7159.019    140467.50     95832.50 
    7160.998    142061.50     97301.50 
    7163.000    141807.50     97230.50 
    7165.003    140285.50     96842.50 
    7167.007    139260.50     96462.50 
    7169.013    138477.50     96535.50 
    7170.976    138790.50     96473.50 
    7173.005    139127.50     96163.50 
    7174.992    141075.50     96298.50 
    7176.980    142693.50     96302.50 
    7178.992    143807.50     96432.50 
    7181.004    144021.50     96547.50 
    7182.996    144746.50     96626.50 
    7185.011    144136.50     96656.50 
    7187.005    145110.50     96689.50 
    7188.979    145360.50     96448.50 
    7190.997    146141.50     96575.50 
    7192.972    146543.50     96547.50 
    7195.037    147410.50     96307.50 
    7197.015    147910.50     96231.50 
    7198.994    149641.50     96530.50 
    7200.996    150465.50     96779.50 
    7202.999    150257.50     96525.50 
    7205.004    150317.50     96577.50 
    7207.009    150466.50     96429.50 
    7208.994    150851.50     96595.50 
    7211.002    150940.50     96356.50 
    7212.989    151602.50     96601.50 
    7215.000    151389.50     96522.50 
    7217.011    151398.50     96476.50 
    7219.001    152231.50     96762.50 
    7221.015    151787.50     96689.50 
    7223.008    151931.50     96589.50 
    7225.024    152449.50     96485.50 
    7226.997    152212.50     96416.50 
    7229.015    152369.50     96507.50 
    7231.013    152340.50     96473.50 
    7233.011    152832.50     96770.50 
    7235.033    152868.50     96398.50 
    7237.034    153503.50     96694.50 
    7239.036    153453.50     96489.50 
    7240.972    153041.50     96111.50 
    7242.999    153370.50     96178.50 
    7244.982    154005.50     96520.50 
    7247.011    154301.50     96466.50 
