#XDI/1.1  GSE/1.0
# Column.1: energy eV
# Column.2: itrans
# Column.3: i0
# Scan.end_time: 2001-12-20 18:26:59
# Scan.start_time: 2001-12-20 18:23:19
# Element.symbol:  Fe
# Element.edge:  K
# Facility.Name:  APS
# Beamline.Name:  13-BM-D
# Beamline.xray_source:  bending magnet
# Mono.dspacing:  3.13555
# Mono.name: Si 111
# Beamline.Storage_Ring_Current: 99.309325 || S:SRcurrentAI.VAL
# Beamline.Undulator_Energy: 7.3282552 || ID13:Energy.VAL
# Beamline.FOE_Mono_angle_readback: 16.077924 || 13IDA:m17.RBV
# Beamline.Undulator_Gap: 17.538250 || ID13:Gap.VAL
# Beamline.Undulator_Harmonic: 1.0000000 || ID13:HarmonicValue.VAL
# Beamline.FOE_H_Slit_Pos: -0.69999999 || 13IDA:m1.VAL
# Beamline.FOE_H_Slit_Wid: 0.75000000 || 13IDA:m2.VAL
# Beamline.FOE_H_Slit_Pos: -0.069999997 || 13IDA:m3.VAL
# Beamline.FOE_V_Slit_Wid: 0.50000000 || 13IDA:m4.VAL
# Beamline.Table_H_Slit_Pos: -150.00176 || 13IDC:m9.VAL
# Beamline.Table_H_Slit_Wid: 300.01103 || 13IDC:m10.VAL
# Beamline.Table_V_Slit_Pos: 149.99617 || 13IDC:m11.VAL
# Beamline.Table_V_Slit_Wid: 300.02738 || 13IDC:m12.VAL
# Beamline.I0_Amp_Sensitivity_units: 3 || 13IDC:A4sens_unit.VAL
# Beamline.I0_Amp_Sensitivity_value: 0 || 13IDC:A4sens_num.VAL
# Beamline.Pre_I0_Amp_Sensitivity_units: 1 || 13IDC:A2sens_unit.VAL
# Beamline.Pre_I0_Amp_Sensitivity_value: 0 || 13IDC:A2sens_num.VAL
# Beamline.PhotoDiode_Amp_Sensitivity_units: 1 || 13IDC:A5sens_unit.VAL
# Beamline.PhotoDiode_Amp_Sensitivity_value: 1 || 13IDC:A5sens_num.VAL
#-------------------------
#  energy  itrans  i0
    7062.003    158986.50    101979.50 
    7067.016    151838.50     96848.50 
    7071.993    150405.50     95451.50 
    7076.999    153155.50     96732.50 
    7081.990    153190.50     96415.50 
    7087.011    154283.50     96698.50 
    7091.996    155006.50     96638.50 
    7097.031    155904.50     96897.50 
    7102.010    156398.50     96925.50 
    7106.974    156451.50     96817.50 
    7107.509    156920.50     97077.50 
    7108.023    157194.50     97260.50 
    7108.495    157350.50     97379.50 
    7109.030    157749.50     97704.50 
    7109.523    158092.50     97942.50 
    7109.995    158140.50     97983.50 
    7110.509    157680.50     97964.50 
    7111.023    157390.50     97975.50 
    7111.495    157289.50     97990.50 
    7112.010    156921.50     97768.50 
    7112.525    157005.50     97840.50 
    7112.997    156900.50     97926.50 
    7113.512    157129.50     98088.50 
    7114.026    157106.50     98146.50 
    7114.499    156525.50     97876.50 
    7115.014    156188.50     97818.50 
    7115.529    156277.50     98093.50 
    7116.001    155455.50     97984.50 
    7116.495    154682.50     98068.50 
    7117.032    152530.50     97778.50 
    7117.526    150650.50     98056.50 
    7117.999    147351.50     97948.50 
    7118.536    143111.50     97672.50 
    7119.030    139399.50     97800.50 
    7119.524    135263.50     97732.50 
    7119.997    131452.50     97934.50 
    7120.535    128055.50     98029.50 
    7121.029    125350.50     97940.50 
    7121.502    123200.50     97684.50 
    7122.018    122173.50     97919.50 
    7122.535    120338.50     97791.50 
    7123.008    118802.50     97921.50 
    7123.502    117122.50     97750.50 
    7124.019    115759.50     97922.50 
    7124.536    114914.50     98106.50 
    7125.009    113450.50     97868.50 
    7125.504    112813.50     97988.50 
    7126.021    112368.50     97984.50 
    7126.495    112252.50     97951.50 
    7127.012    112557.50     97895.50 
    7127.529    113185.50     97989.50 
    7128.003    113876.50     98018.50 
    7128.499    114474.50     98184.50 
    7128.994    114451.50     97976.50 
    7129.533    114628.50     97828.50 
    7130.029    114757.50     97859.50 
    7130.503    115201.50     98050.50 
    7131.021    114989.50     97782.50 
    7131.495    115404.50     97834.50 
    7132.013    115693.50     97485.50 
    7132.531    116689.50     97933.50 
    7133.027    116817.50     97704.50 
    7133.501    117510.50     97816.50 
    7133.998    117848.50     97903.50 
    7134.516    118407.50     98103.50 
    7135.034    118238.50     97948.50 
    7135.509    117870.50     97733.50 
    7136.006    117951.50     97804.50 
    7136.502    117751.50     97635.50 
    7137.000    118222.50     97903.50 
    7139.009    118308.50     97606.50 
    7140.998    119271.50     97495.50 
    7143.010    120459.50     97859.50 
    7144.980    121453.50     97813.50 
    7146.995    122946.50     98036.50 
    7149.010    123978.50     97889.50 
    7151.005    124310.50     97945.50 
    7153.023    124030.50     97691.50 
    7154.999    123366.50     97568.50 
    7156.997    122543.50     97375.50 
    7159.019    121475.50     96902.50 
    7161.020    122759.50     98345.50 
    7163.000    122321.50     98553.50 
    7165.003    121175.50     98089.50 
    7167.007    120287.50     97805.50 
    7168.991    119551.50     97496.50 
    7170.998    119356.50     97398.50 
    7173.005    119385.50     97464.50 
    7175.014    119322.50     97375.50 
    7177.002    119644.50     97420.50 
    7178.992    119977.50     97496.50 
    7181.004    120624.50     97865.50 
    7182.996    120326.50     97577.50 
    7185.011    120604.50     97616.50 
    7187.027    121211.50     97854.50 
    7188.979    121382.50     97547.50 
    7190.997    122146.50     97917.50 
    7192.972    122229.50     97873.50 
    7195.037    122351.50     97804.50 
    7197.037    121992.50     97402.50 
    7198.994    122482.50     97464.50 
    7200.996    123000.50     97662.50 
    7202.999    123483.50     97801.50 
    7205.004    123388.50     97621.50 
    7207.009    123234.50     97465.50 
    7208.994    123537.50     97531.50 
    7211.024    123349.50     97283.50 
    7212.989    123906.50     97621.50 
    7215.000    123976.50     97640.50 
    7216.989    124475.50     97957.50 
    7218.979    124222.50     97839.50 
    7221.015    123826.50     97710.50 
    7223.008    123573.50     97552.50 
    7224.979    123548.50     97606.50 
    7226.997    123512.50     97582.50 
    7229.015    123646.50     97380.50 
    7231.013    124206.50     97846.50 
    7233.011    124447.50     98175.50 
    7235.011    124070.50     97849.50 
    7237.034    124255.50     97874.50 
    7239.036    123666.50     97550.50 
    7240.995    124117.50     97556.50 
    7242.999    123744.50     97188.50 
    7245.004    123827.50     97372.50 
    7247.011    124016.50     97525.50 
