#XDI/1.1  GSE/1.0
# Column.1: energy eV
# Column.2: itrans
# Column.3: i0
# Scan.end_time: 2001-12-20 19:20:36
# Scan.start_time: 2001-12-20 19:16:53
# Element.symbol:  Fe
# Element.edge:  K
# Facility.Name:  APS
# Beamline.Name:  13-BM-D
# Beamline.xray_source:  bending magnet
# Mono.dspacing:  3.13555
# Mono.name: Si 111
# Beamline.Storage_Ring_Current: 96.686133 || S:SRcurrentAI.VAL
# Beamline.Undulator_Energy: 7.3280852 || ID13:Energy.VAL
# Beamline.FOE_Mono_angle_readback: 16.077874 || 13IDA:m17.RBV
# Beamline.Undulator_Gap: 17.538000 || ID13:Gap.VAL
# Beamline.Undulator_Harmonic: 1.0000000 || ID13:HarmonicValue.VAL
# Beamline.FOE_H_Slit_Pos: -0.69999999 || 13IDA:m1.VAL
# Beamline.FOE_H_Slit_Wid: 0.75000000 || 13IDA:m2.VAL
# Beamline.FOE_H_Slit_Pos: -0.069999997 || 13IDA:m3.VAL
# Beamline.FOE_V_Slit_Wid: 0.50000000 || 13IDA:m4.VAL
# Beamline.Table_H_Slit_Pos: -150.00176 || 13IDC:m9.VAL
# Beamline.Table_H_Slit_Wid: 300.01103 || 13IDC:m10.VAL
# Beamline.Table_V_Slit_Pos: 149.99617 || 13IDC:m11.VAL
# Beamline.Table_V_Slit_Wid: 300.02738 || 13IDC:m12.VAL
# Beamline.I0_Amp_Sensitivity_units: 3 || 13IDC:A4sens_unit.VAL
# Beamline.I0_Amp_Sensitivity_value: 0 || 13IDC:A4sens_num.VAL
# Beamline.Pre_I0_Amp_Sensitivity_units: 1 || 13IDC:A2sens_unit.VAL
# Beamline.Pre_I0_Amp_Sensitivity_value: 0 || 13IDC:A2sens_num.VAL
# Beamline.PhotoDiode_Amp_Sensitivity_units: 1 || 13IDC:A5sens_unit.VAL
# Beamline.PhotoDiode_Amp_Sensitivity_value: 1 || 13IDC:A5sens_num.VAL
#-------------------------
#  energy  itrans  i0
    7061.982    191379.50     99081.50 
    7067.016    183510.50     94350.50 
    7072.014    181413.50     92876.50 
    7076.999    184284.50     93862.50 
    7082.011    184816.50     93733.50 
    7086.989    186383.50     94080.50 
    7091.975    186665.50     93820.50 
    7096.988    188596.50     94323.50 
    7101.988    189571.50     94390.50 
    7106.974    190019.50     94219.50 
    7107.531    190798.50     94474.50 
    7108.002    191403.50     94719.50 
    7108.495    192312.50     95260.50 
    7109.009    192239.50     95266.50 
    7109.523    192185.50     95198.50 
    7109.995    191962.50     95026.50 
    7110.509    192121.50     95180.50 
    7111.023    192034.50     95189.50 
    7111.517    192552.50     95515.50 
    7112.010    191886.50     95170.50 
    7112.482    192033.50     95174.50 
    7113.018    192662.50     95501.50 
    7113.512    192205.50     95369.50 
    7114.026    192132.50     95242.50 
    7114.520    192177.50     95225.50 
    7115.035    192261.50     95259.50 
    7115.507    191793.50     95072.50 
    7116.022    192138.50     95390.50 
    7116.495    192004.50     95474.50 
    7117.010    192064.50     95751.50 
    7117.504    190766.50     95563.50 
    7118.020    189095.50     95369.50 
    7118.514    188028.50     95584.50 
    7119.008    185451.50     95212.50 
    7119.503    183227.50     95054.50 
    7119.997    181748.50     95216.50 
    7120.513    180267.50     95304.50 
    7121.029    179425.50     95544.50 
    7121.523    177477.50     95145.50 
    7121.997    176436.50     95269.50 
    7122.535    174935.50     95298.50 
    7123.029    173032.50     95125.50 
    7123.502    171199.50     95212.50 
    7123.998    169882.50     94997.50 
    7124.536    168279.50     95187.50 
    7125.009    167534.50     95440.50 
    7125.504    166842.50     95541.50 
    7126.021    165839.50     95448.50 
    7126.517    164473.50     95272.50 
    7127.012    163552.50     95384.50 
    7127.507    163531.50     95576.50 
    7128.024    161909.50     95389.50 
    7128.520    161262.50     94972.50 
    7128.994    161550.50     95127.50 
    7129.533    162150.50     95215.50 
    7130.007    162588.50     95282.50 
    7130.503    163769.50     95431.50 
    7130.999    164657.50     95241.50 
    7131.495    165331.50     95233.50 
    7132.013    166504.50     95451.50 
    7132.531    167244.50     95419.50 
    7133.005    167617.50     95270.50 
    7133.501    168054.50     95034.50 
    7133.998    167886.50     94698.50 
    7134.495    168627.50     95321.50 
    7135.034    169896.50     95409.50 
    7135.509    169890.50     95433.50 
    7136.027    170153.50     95174.50 
    7136.524    170420.50     95407.50 
    7137.000    170785.50     95167.50 
    7139.031    170438.50     94695.50 
    7141.020    171493.50     94828.50 
    7143.010    172697.50     94854.50 
    7145.002    174763.50     95303.50 
    7146.995    176766.50     95526.50 
    7149.010    177998.50     95436.50 
    7150.983    178453.50     95343.50 
    7153.023    178910.50     95052.50 
    7155.021    179343.50     95008.50 
    7157.019    179450.50     95014.50 
    7159.019    178284.50     94718.50 
    7160.998    179961.50     95490.50 
    7163.000    180037.50     95397.50 
    7165.003    179149.50     95108.50 
    7167.007    178857.50     95061.50 
    7168.991    179009.50     95090.50 
    7170.998    178467.50     95032.50 
    7173.005    178351.50     95040.50 
    7175.014    178940.50     95183.50 
    7176.980    178770.50     94940.50 
    7179.014    179762.50     95002.50 
    7181.004    180490.50     95080.50 
    7182.996    180902.50     95050.50 
    7185.011    180910.50     94860.50 
    7187.005    182420.50     95264.50 
    7188.979    182418.50     94917.50 
    7190.997    183225.50     95141.50 
    7192.972    183864.50     95225.50 
    7195.037    183971.50     95077.50 
    7197.015    184095.50     94943.50 
    7198.994    184925.50     95143.50 
    7200.974    185334.50     95033.50 
    7202.999    185356.50     94978.50 
    7205.004    186004.50     95073.50 
    7207.031    185748.50     94775.50 
    7208.994    186396.50     94822.50 
    7210.980    187647.50     95376.50 
    7212.989    187834.50     95197.50 
    7215.000    187989.50     95065.50 
    7216.989    188076.50     94822.50 
    7218.979    188605.50     94835.50 
    7220.993    189950.50     95308.50 
    7223.008    190039.50     95072.50 
    7225.002    190323.50     94924.50 
    7226.997    190632.50     94922.50 
    7229.015    190259.50     94638.50 
    7231.013    191052.50     94947.50 
    7233.011    191254.50     94913.50 
    7235.033    191872.50     95084.50 
    7237.034    191581.50     94917.50 
    7239.014    192246.50     95092.50 
    7240.972    191886.50     94988.50 
    7242.977    192393.50     94981.50 
    7244.982    192847.50     95257.50 
    7247.011    193458.50     95278.50 
