#XDI/1.1  GSE/1.0
# Column.1: energy eV
# Column.2: itrans
# Column.3: i0
# Scan.end_time: 2001-12-20 19:30:52
# Scan.start_time: 2001-12-20 19:27:13
# Element.symbol:  Fe
# Element.edge:  K
# Facility.Name:  APS
# Beamline.Name:  13-BM-D
# Beamline.xray_source:  bending magnet
# Mono.dspacing:  3.13555
# Mono.name: Si 111
# Beamline.Storage_Ring_Current: 96.191363 || S:SRcurrentAI.VAL
# Beamline.Undulator_Energy: 7.3285980 || ID13:Energy.VAL
# Beamline.FOE_Mono_angle_readback: 16.077924 || 13IDA:m17.RBV
# Beamline.Undulator_Gap: 17.538750 || ID13:Gap.VAL
# Beamline.Undulator_Harmonic: 1.0000000 || ID13:HarmonicValue.VAL
# Beamline.FOE_H_Slit_Pos: -0.69999999 || 13IDA:m1.VAL
# Beamline.FOE_H_Slit_Wid: 0.75000000 || 13IDA:m2.VAL
# Beamline.FOE_H_Slit_Pos: -0.069999997 || 13IDA:m3.VAL
# Beamline.FOE_V_Slit_Wid: 0.50000000 || 13IDA:m4.VAL
# Beamline.Table_H_Slit_Pos: -150.00176 || 13IDC:m9.VAL
# Beamline.Table_H_Slit_Wid: 300.01103 || 13IDC:m10.VAL
# Beamline.Table_V_Slit_Pos: 149.99617 || 13IDC:m11.VAL
# Beamline.Table_V_Slit_Wid: 300.02738 || 13IDC:m12.VAL
# Beamline.I0_Amp_Sensitivity_units: 3 || 13IDC:A4sens_unit.VAL
# Beamline.I0_Amp_Sensitivity_value: 0 || 13IDC:A4sens_num.VAL
# Beamline.Pre_I0_Amp_Sensitivity_units: 1 || 13IDC:A2sens_unit.VAL
# Beamline.Pre_I0_Amp_Sensitivity_value: 0 || 13IDC:A2sens_num.VAL
# Beamline.PhotoDiode_Amp_Sensitivity_units: 1 || 13IDC:A5sens_unit.VAL
# Beamline.PhotoDiode_Amp_Sensitivity_value: 1 || 13IDC:A5sens_num.VAL
#-------------------------
#  energy  itrans  i0
    7062.003    255078.50     97598.50 
    7067.016    244495.50     93010.50 
    7072.014    243396.50     92436.50 
    7076.977    247113.50     93538.50 
    7081.990    247364.50     93412.50 
    7087.011    247759.50     93394.50 
    7091.996    247873.50     93382.50 
    7096.988    248712.50     93803.50 
    7102.010    247017.50     93809.50 
    7106.974    239966.50     93626.50 
    7107.509    239568.50     94179.50 
    7108.023    238049.50     94438.50 
    7108.495    235044.50     94433.50 
    7109.009    230302.50     94441.50 
    7109.523    223045.50     94443.50 
    7109.995    209804.50     94719.50 
    7110.509    184999.50     94674.50 
    7111.002    157798.50     94813.50 
    7111.517    136522.50     94704.50 
    7112.010    122611.50     94687.50 
    7112.525    113261.50     94700.50 
    7112.997    105688.50     94691.50 
    7113.512     98570.50     94445.50 
    7114.026     93655.50     94431.50 
    7114.499     90503.50     94546.50 
    7115.014     88813.50     94808.50 
    7115.529     87701.50     94875.50 
    7116.022     86171.50     94676.50 
    7116.495     83684.50     94955.50 
    7117.010     78322.50     94873.50 
    7117.526     71557.50     94876.50 
    7117.999     64472.50     94663.50 
    7118.514     57524.50     94577.50 
    7119.030     51193.50     94522.50 
    7119.524     45607.50     94786.50 
    7119.997     40200.50     94503.50 
    7120.513     35490.50     94432.50 
    7121.029     32119.50     94699.50 
    7121.523     29319.50     94597.50 
    7121.997     27225.50     94911.50 
    7122.535     25426.50     94922.50 
    7123.029     23952.50     94789.50 
    7123.502     22753.50     94952.50 
    7124.019     21621.50     94714.50 
    7124.536     20615.50     94657.50 
    7125.009     19769.50     94744.50 
    7125.504     18881.50     94640.50 
    7126.000     18049.50     94738.50 
    7126.495     17180.50     94748.50 
    7127.012     16187.50     94840.50 
    7127.529     15133.50     94711.50 
    7128.003     14079.50     94517.50 
    7128.499     13052.50     94473.50 
    7128.994     12181.50     94408.50 
    7129.533     11494.50     94541.50 
    7130.007     11068.50     94670.50 
    7130.503     10958.50     94772.50 
    7131.021     11180.50     94932.50 
    7131.517     11638.50     94742.50 
    7132.013     12356.50     94812.50 
    7132.531     13143.50     94769.50 
    7133.027     13947.50     94574.50 
    7133.523     14741.50     94757.50 
    7133.998     15394.50     94397.50 
    7134.495     16027.50     94665.50 
    7135.034     16425.50     94425.50 
    7135.509     16717.50     94561.50 
    7135.984     16898.50     94681.50 
    7136.524     16856.50     94452.50 
    7137.000     16775.50     94687.50 
    7139.009     15475.50     94167.50 
    7141.020     14826.50     94475.50 
    7143.010     15201.50     94705.50 
    7145.002     15129.50     94535.50 
    7146.995     13976.50     94587.50 
    7148.988     12765.50     94734.50 
    7150.983     12211.50     94413.50 
    7153.001     11937.50     94245.50 
    7154.999     12171.50     94438.50 
    7156.975     12427.50     94255.50 
    7159.019     12434.50     93814.50 
    7160.998     12647.50     94603.50 
    7163.000     12987.50     94948.50 
    7165.003     13267.50     94719.50 
    7167.007     13434.50     94475.50 
    7169.013     13657.50     94395.50 
    7170.998     14112.50     94554.50 
    7172.983     14865.50     94594.50 
    7175.014     15734.50     94183.50 
    7177.002     16716.50     94213.50 
    7179.014     17376.50     94365.50 
    7180.982     17478.50     94550.50 
    7182.996     17200.50     94263.50 
    7185.011     16681.50     94492.50 
    7187.005     15831.50     94408.50 
    7188.979     15007.50     94527.50 
    7190.997     14141.50     94585.50 
    7192.972     13517.50     94536.50 
    7195.037     13518.50     94490.50 
    7197.015     13975.50     94035.50 
    7198.994     14867.50     94333.50 
    7200.974     15906.50     94206.50 
    7202.977     17131.50     94214.50 
    7204.981     18313.50     94168.50 
    7207.009     18874.50     94313.50 
    7208.994     18306.50     94292.50 
    7211.002     16609.50     94471.50 
    7212.989     14291.50     94491.50 
    7215.000     12264.50     94547.50 
    7217.011     10796.50     94626.50 
    7219.001     10014.50     94494.50 
    7220.993      9936.50     94443.50 
    7223.008     10530.50     94419.50 
    7225.002     11657.50     94258.50 
    7226.997     13128.50     94160.50 
    7229.015     14889.50     94294.50 
    7231.013     16745.50     94398.50 
    7233.011     18444.50     94328.50 
    7235.011     19734.50     94159.50 
    7237.034     20560.50     94599.50 
    7239.036     20615.50     94222.50 
    7240.972     20288.50     94328.50 
    7242.999     19568.50     94236.50 
    7245.004     18846.50     94382.50 
    7247.011     18263.50     94343.50 
