#XDI/1.1  GSE/1.0
# Column.1: energy eV
# Column.2: itrans
# Column.3: i0
# Scan.end_time: 2001-12-20 19:06:23
# Scan.start_time: 2001-12-20 19:02:41
# Element.symbol:  Fe
# Element.edge:  K
# Facility.Name:  APS
# Beamline.Name:  13-BM-D
# Beamline.xray_source:  bending magnet
# Mono.dspacing:  3.13555
# Mono.name: Si 111
# Beamline.Storage_Ring_Current: 97.368100 || S:SRcurrentAI.VAL
# Beamline.Undulator_Energy: 7.3277440 || ID13:Energy.VAL
# Beamline.FOE_Mono_angle_readback: 16.077874 || 13IDA:m17.RBV
# Beamline.Undulator_Gap: 17.537500 || ID13:Gap.VAL
# Beamline.Undulator_Harmonic: 1.0000000 || ID13:HarmonicValue.VAL
# Beamline.FOE_H_Slit_Pos: -0.69999999 || 13IDA:m1.VAL
# Beamline.FOE_H_Slit_Wid: 0.75000000 || 13IDA:m2.VAL
# Beamline.FOE_H_Slit_Pos: -0.069999997 || 13IDA:m3.VAL
# Beamline.FOE_V_Slit_Wid: 0.50000000 || 13IDA:m4.VAL
# Beamline.Table_H_Slit_Pos: -150.00176 || 13IDC:m9.VAL
# Beamline.Table_H_Slit_Wid: 300.01103 || 13IDC:m10.VAL
# Beamline.Table_V_Slit_Pos: 149.99617 || 13IDC:m11.VAL
# Beamline.Table_V_Slit_Wid: 300.02738 || 13IDC:m12.VAL
# Beamline.I0_Amp_Sensitivity_units: 3 || 13IDC:A4sens_unit.VAL
# Beamline.I0_Amp_Sensitivity_value: 0 || 13IDC:A4sens_num.VAL
# Beamline.Pre_I0_Amp_Sensitivity_units: 1 || 13IDC:A2sens_unit.VAL
# Beamline.Pre_I0_Amp_Sensitivity_value: 0 || 13IDC:A2sens_num.VAL
# Beamline.PhotoDiode_Amp_Sensitivity_units: 1 || 13IDC:A5sens_unit.VAL
# Beamline.PhotoDiode_Amp_Sensitivity_value: 1 || 13IDC:A5sens_num.VAL
#-------------------------
#  energy  itrans  i0
    7061.982    187772.50    100117.50 
    7067.016    178270.50     94680.50 
    7072.014    177824.50     93991.50 
    7076.999    179720.50     94563.50 
    7081.990    180355.50     94444.50 
    7086.989    182492.50     95154.50 
    7091.975    182308.50     94625.50 
    7096.988    184204.50     95218.50 
    7101.988    184611.50     95001.50 
    7106.974    185286.50     95074.50 
    7107.509    185609.50     95144.50 
    7108.002    186522.50     95651.50 
    7108.516    187212.50     95910.50 
    7109.009    187183.50     95876.50 
    7109.523    186697.50     95726.50 
    7109.995    187131.50     96034.50 
    7110.509    186497.50     95834.50 
    7111.002    186349.50     95858.50 
    7111.517    186398.50     95881.50 
    7112.010    186196.50     95867.50 
    7112.546    186697.50     96243.50 
    7113.018    186134.50     95974.50 
    7113.533    186265.50     95986.50 
    7114.026    186031.50     95953.50 
    7114.520    186256.50     96064.50 
    7115.014    186310.50     96138.50 
    7115.507    185766.50     95914.50 
    7116.022    185151.50     95838.50 
    7116.517    184999.50     96069.50 
    7117.010    183876.50     96010.50 
    7117.526    182719.50     96181.50 
    7118.020    180316.50     95861.50 
    7118.514    177891.50     95897.50 
    7119.030    174779.50     95743.50 
    7119.524    171735.50     95775.50 
    7119.997    168742.50     95812.50 
    7120.513    166574.50     96107.50 
    7121.029    164810.50     96301.50 
    7121.523    162547.50     96100.50 
    7121.997    160629.50     96213.50 
    7122.513    158125.50     96106.50 
    7123.029    155640.50     96033.50 
    7123.502    152921.50     95801.50 
    7123.998    150374.50     95679.50 
    7124.536    148378.50     95692.50 
    7125.009    147289.50     95947.50 
    7125.504    145929.50     95889.50 
    7126.021    145145.50     96035.50 
    7126.517    144034.50     95828.50 
    7127.012    143551.50     95922.50 
    7127.507    142877.50     96060.50 
    7128.024    141353.50     95783.50 
    7128.499    140712.50     95832.50 
    7129.016    140386.50     95992.50 
    7129.533    140507.50     96006.50 
    7130.007    141015.50     95787.50 
    7130.503    142261.50     95941.50 
    7131.021    143477.50     95971.50 
    7131.495    144303.50     95986.50 
    7132.013    145408.50     95993.50 
    7132.531    146476.50     96051.50 
    7133.027    147549.50     96108.50 
    7133.501    147872.50     95754.50 
    7134.020    148718.50     95772.50 
    7134.516    149400.50     95808.50 
    7135.034    150306.50     96061.50 
    7135.509    150595.50     96132.50 
    7136.006    150766.50     96046.50 
    7136.524    150876.50     96046.50 
    7137.000    150626.50     95867.50 
    7139.009    150010.50     95326.50 
    7141.020    150642.50     95400.50 
    7143.010    152052.50     95747.50 
    7145.002    153625.50     95892.50 
    7146.973    155750.50     96083.50 
    7149.010    156738.50     95868.50 
    7151.005    157872.50     95903.50 
    7153.023    158310.50     95786.50 
    7155.021    158374.50     95648.50 
    7157.019    158039.50     95545.50 
    7159.019    156965.50     94993.50 
    7160.998    158806.50     96443.50 
    7163.000    157041.50     95962.50 
    7165.003    155829.50     95797.50 
    7167.007    155294.50     95919.50 
    7169.013    153920.50     95581.50 
    7170.976    154277.50     96102.50 
    7173.005    153496.50     95782.50 
    7175.014    152995.50     95452.50 
    7176.980    153470.50     95662.50 
    7178.992    154454.50     95833.50 
    7180.982    154453.50     95456.50 
    7182.974    155151.50     95612.50 
    7185.011    156088.50     95818.50 
    7187.005    156797.50     95944.50 
    7189.000    157064.50     95747.50 
    7190.997    157178.50     95742.50 
    7192.972    156953.50     95392.50 
    7195.015    157452.50     95574.50 
    7197.015    157341.50     95388.50 
    7198.994    158601.50     95941.50 
    7200.996    158408.50     95818.50 
    7202.999    158962.50     96017.50 
    7204.981    158529.50     95666.50 
    7207.009    159096.50     95866.50 
    7208.994    159474.50     95900.50 
    7211.002    160046.50     96173.50 
    7212.989    159933.50     95868.50 
    7215.000    159427.50     95409.50 
    7217.011    160211.50     95704.50 
    7219.001    159912.50     95360.50 
    7221.037    160611.50     95513.50 
    7223.008    161508.50     95648.50 
    7225.002    161836.50     95626.50 
    7226.997    162314.50     95816.50 
    7229.015    161936.50     95425.50 
    7231.013    162551.50     95688.50 
    7233.033    162651.50     95788.50 
    7235.011    162100.50     95578.50 
    7237.012    162109.50     95650.50 
    7239.014    162005.50     95617.50 
    7240.995    162274.50     95770.50 
    7242.999    162603.50     95829.50 
    7245.004    162714.50     95949.50 
    7247.011    162132.50     95677.50 
