#XDI/1.1  GSE/1.0
# Column.1: energy eV
# Column.2: itrans
# Column.3: i0
# Scan.end_time: 2001-12-20 18:40:58
# Scan.start_time: 2001-12-20 18:37:12
# Element.symbol:  Fe
# Element.edge:  K
# Facility.Name:  APS
# Beamline.Name:  13-BM-D
# Beamline.xray_source:  bending magnet
# Mono.dspacing:  3.13555
# Mono.name: Si 111
# Beamline.Storage_Ring_Current: 98.617197 || S:SRcurrentAI.VAL
# Beamline.Undulator_Energy: 7.3285980 || ID13:Energy.VAL
# Beamline.FOE_Mono_angle_readback: 16.077874 || 13IDA:m17.RBV
# Beamline.Undulator_Gap: 17.538750 || ID13:Gap.VAL
# Beamline.Undulator_Harmonic: 1.0000000 || ID13:HarmonicValue.VAL
# Beamline.FOE_H_Slit_Pos: -0.69999999 || 13IDA:m1.VAL
# Beamline.FOE_H_Slit_Wid: 0.75000000 || 13IDA:m2.VAL
# Beamline.FOE_H_Slit_Pos: -0.069999997 || 13IDA:m3.VAL
# Beamline.FOE_V_Slit_Wid: 0.50000000 || 13IDA:m4.VAL
# Beamline.Table_H_Slit_Pos: -150.00176 || 13IDC:m9.VAL
# Beamline.Table_H_Slit_Wid: 300.01103 || 13IDC:m10.VAL
# Beamline.Table_V_Slit_Pos: 149.99617 || 13IDC:m11.VAL
# Beamline.Table_V_Slit_Wid: 300.02738 || 13IDC:m12.VAL
# Beamline.I0_Amp_Sensitivity_units: 3 || 13IDC:A4sens_unit.VAL
# Beamline.I0_Amp_Sensitivity_value: 0 || 13IDC:A4sens_num.VAL
# Beamline.Pre_I0_Amp_Sensitivity_units: 1 || 13IDC:A2sens_unit.VAL
# Beamline.Pre_I0_Amp_Sensitivity_value: 0 || 13IDC:A2sens_num.VAL
# Beamline.PhotoDiode_Amp_Sensitivity_units: 1 || 13IDC:A5sens_unit.VAL
# Beamline.PhotoDiode_Amp_Sensitivity_value: 1 || 13IDC:A5sens_num.VAL
#-------------------------
#  energy  itrans  i0
    7061.982    184392.50    101125.50 
    7067.016    176049.50     95875.50 
    7072.014    174727.50     94735.50 
    7076.999    177809.50     95872.50 
    7081.990    178495.50     95873.50 
    7087.011    179256.50     95828.50 
    7091.996    181102.50     96365.50 
    7097.010    181970.50     96352.50 
    7102.031    182900.50     96394.50 
    7106.974    183765.50     96372.50 
    7107.509    184679.50     96807.50 
    7108.023    185143.50     96977.50 
    7108.516    184941.50     96949.50 
    7109.009    185799.50     97393.50 
    7109.523    185509.50     97127.50 
    7109.995    186062.50     97497.50 
    7110.509    185076.50     97051.50 
    7111.023    185256.50     97207.50 
    7111.517    184803.50     97125.50 
    7112.010    183942.50     96828.50 
    7112.503    183311.50     96875.50 
    7112.997    183117.50     96985.50 
    7113.512    183753.50     97179.50 
    7114.026    184210.50     97314.50 
    7114.520    184715.50     97425.50 
    7115.014    184175.50     97062.50 
    7115.529    184076.50     97020.50 
    7116.022    184080.50     97029.50 
    7116.517    183419.50     96695.50 
    7117.010    183634.50     96975.50 
    7117.504    183396.50     97118.50 
    7117.999    182578.50     96953.50 
    7118.514    182029.50     97168.50 
    7119.030    180740.50     97044.50 
    7119.503    179511.50     97182.50 
    7119.997    178134.50     97367.50 
    7120.535    176283.50     97007.50 
    7121.029    175268.50     97229.50 
    7121.523    173760.50     97212.50 
    7122.018    172683.50     97179.50 
    7122.535    171157.50     97195.50 
    7123.008    169368.50     97077.50 
    7123.502    167154.50     96956.50 
    7124.019    165774.50     97020.50 
    7124.536    165074.50     97253.50 
    7125.009    163608.50     97081.50 
    7125.526    162494.50     97157.50 
    7126.021    161817.50     97118.50 
    7126.495    160902.50     97040.50 
    7127.012    159445.50     96962.50 
    7127.529    158621.50     97049.50 
    7128.003    157097.50     96978.50 
    7128.499    155906.50     97055.50 
    7128.994    154324.50     96947.50 
    7129.511    153946.50     97042.50 
    7130.007    153984.50     97270.50 
    7130.503    153346.50     96915.50 
    7131.021    153603.50     96888.50 
    7131.495    154406.50     97144.50 
    7132.013    155027.50     96923.50 
    7132.531    156016.50     97284.50 
    7133.027    156294.50     96953.50 
    7133.501    157343.50     96994.50 
    7133.998    158113.50     97050.50 
    7134.495    158608.50     96917.50 
    7135.034    159155.50     97161.50 
    7135.509    159720.50     97154.50 
    7136.027    159950.50     97049.50 
    7136.502    160287.50     97068.50 
    7137.000    160377.50     97081.50 
    7139.009    160946.50     96669.50 
    7140.998    162289.50     96667.50 
    7143.010    162682.50     96779.50 
    7144.980    163807.50     97161.50 
    7146.973    165072.50     97205.50 
    7148.988    166179.50     96950.50 
    7151.005    167829.50     96857.50 
    7153.001    168771.50     96964.50 
    7155.021    168827.50     96760.50 
    7157.019    170242.50     96736.50 
    7158.997    169807.50     96255.50 
    7161.020    171757.50     97295.50 
    7163.000    172418.50     97407.50 
    7165.003    172233.50     97171.50 
    7167.007    171711.50     96941.50 
    7168.991    171377.50     96851.50 
    7170.998    171070.50     96756.50 
    7173.005    170485.50     96707.50 
    7175.014    170420.50     96633.50 
    7177.002    170892.50     97121.50 
    7179.014    170011.50     96563.50 
    7180.982    170158.50     96714.50 
    7182.996    169955.50     96562.50 
    7184.989    171133.50     96868.50 
    7187.005    171360.50     96798.50 
    7188.979    170892.50     96308.50 
    7190.997    172056.50     96734.50 
    7192.994    172900.50     96703.50 
    7195.037    173623.50     96825.50 
    7197.037    173621.50     96446.50 
    7198.994    175380.50     97061.50 
    7200.996    175733.50     96951.50 
    7202.999    176063.50     96692.50 
    7205.004    177025.50     97006.50 
    7207.031    176861.50     96568.50 
    7208.994    177401.50     96625.50 
    7211.002    177860.50     96657.50 
    7213.011    178129.50     96685.50 
    7215.000    178226.50     96648.50 
    7217.011    179016.50     96961.50 
    7218.979    179546.50     97068.50 
    7221.015    179759.50     97191.50 
    7223.008    179524.50     96804.50 
    7225.002    179191.50     96614.50 
    7226.997    179149.50     96452.50 
    7229.015    179550.50     96512.50 
    7231.013    180144.50     96646.50 
    7233.011    181187.50     96935.50 
    7235.033    182030.50     97093.50 
    7237.034    181760.50     96607.50 
    7239.036    182797.50     96799.50 
    7241.017    183498.50     96804.50 
    7243.021    183536.50     96531.50 
    7245.026    184812.50     96977.50 
    7247.011    186278.50     97453.50 
