#XDI/1.1  GSE/1.0
# Column.1: energy eV
# Column.2: itrans
# Column.3: i0
# Scan.end_time: 2001-12-20 17:50:25
# Scan.start_time: 2001-12-20 17:46:43
# Element.symbol:  Fe
# Element.edge:  K
# Facility.Name:  APS
# Beamline.Name:  13-BM-D
# Beamline.xray_source:  bending magnet
# Mono.dspacing:  3.13555
# Mono.name: Si 111
# Beamline.Storage_Ring_Current: 101.19222 || S:SRcurrentAI.VAL
# Beamline.Undulator_Energy: 7.3893514 || ID13:Energy.VAL
# Beamline.FOE_Mono_angle_readback: 15.940374 || 13IDA:m17.RBV
# Beamline.Undulator_Gap: 17.627750 || ID13:Gap.VAL
# Beamline.Undulator_Harmonic: 1.0000000 || ID13:HarmonicValue.VAL
# Beamline.FOE_H_Slit_Pos: -0.69999999 || 13IDA:m1.VAL
# Beamline.FOE_H_Slit_Wid: 0.75000000 || 13IDA:m2.VAL
# Beamline.FOE_H_Slit_Pos: -0.069999997 || 13IDA:m3.VAL
# Beamline.FOE_V_Slit_Wid: 0.50000000 || 13IDA:m4.VAL
# Beamline.Table_H_Slit_Pos: -150.00176 || 13IDC:m9.VAL
# Beamline.Table_H_Slit_Wid: 300.01103 || 13IDC:m10.VAL
# Beamline.Table_V_Slit_Pos: 149.99617 || 13IDC:m11.VAL
# Beamline.Table_V_Slit_Wid: 300.02738 || 13IDC:m12.VAL
# Beamline.I0_Amp_Sensitivity_units: 3 || 13IDC:A4sens_unit.VAL
# Beamline.I0_Amp_Sensitivity_value: 0 || 13IDC:A4sens_num.VAL
# Beamline.Pre_I0_Amp_Sensitivity_units: 1 || 13IDC:A2sens_unit.VAL
# Beamline.Pre_I0_Amp_Sensitivity_value: 0 || 13IDC:A2sens_num.VAL
# Beamline.PhotoDiode_Amp_Sensitivity_units: 1 || 13IDC:A5sens_unit.VAL
# Beamline.PhotoDiode_Amp_Sensitivity_value: 1 || 13IDC:A5sens_num.VAL
#-------------------------
#  energy  itrans  i0
    7061.982    201212.50    103188.50 
    7066.994    192612.50     98294.50 
    7072.014    190369.50     96751.50 
    7076.999    193273.50     97725.50 
    7081.990    194241.50     97728.50 
    7086.989    195545.50     97911.50 
    7091.975    196402.50     97924.50 
    7096.988    198579.50     98571.50 
    7101.988    200329.50     98990.50 
    7106.974    200889.50     98857.50 
    7107.531    201806.50     99267.50 
    7108.002    202177.50     99479.50 
    7108.495    202608.50     99679.50 
    7109.009    202772.50     99776.50 
    7109.523    202427.50     99485.50 
    7109.995    202775.50     99651.50 
    7110.531    202417.50     99668.50 
    7111.002    202451.50     99610.50 
    7111.495    202170.50     99596.50 
    7112.031    202119.50     99736.50 
    7112.503    201490.50     99663.50 
    7112.997    201005.50     99613.50 
    7113.533    201054.50     99638.50 
    7114.026    201190.50     99601.50 
    7114.499    201950.50     99783.50 
    7115.014    202147.50     99666.50 
    7115.507    202252.50     99738.50 
    7116.001    202513.50     99861.50 
    7116.517    202267.50     99759.50 
    7117.032    201809.50     99509.50 
    7117.504    201912.50     99556.50 
    7117.999    201590.50     99438.50 
    7118.536    201215.50     99434.50 
    7119.030    201234.50     99630.50 
    7119.503    200838.50     99599.50 
    7120.019    199955.50     99516.50 
    7120.535    199131.50     99570.50 
    7121.007    198195.50     99834.50 
    7121.523    196169.50     99552.50 
    7122.018    194653.50     99565.50 
    7122.535    193320.50     99747.50 
    7123.008    191562.50     99598.50 
    7123.524    190210.50     99553.50 
    7123.998    189027.50     99597.50 
    7124.514    187756.50     99617.50 
    7125.009    186676.50     99789.50 
    7125.526    184818.50     99542.50 
    7126.021    183397.50     99546.50 
    7126.495    182323.50     99615.50 
    7127.033    181342.50     99670.50 
    7127.529    179983.50     99590.50 
    7128.003    179830.50    100007.50 
    7128.520    178341.50     99618.50 
    7129.016    177649.50     99646.50 
    7129.533    177033.50     99582.50 
    7130.029    176883.50     99701.50 
    7130.525    175962.50     99323.50 
    7131.021    175700.50     99258.50 
    7131.495    175654.50     99315.50 
    7132.034    175600.50     99244.50 
    7132.531    176154.50     99429.50 
    7133.027    176427.50     99500.50 
    7133.501    177093.50     99726.50 
    7134.020    177095.50     99561.50 
    7134.495    177450.50     99598.50 
    7135.013    178062.50     99711.50 
    7135.509    178030.50     99547.50 
    7136.006    178864.50     99833.50 
    7136.502    178572.50     99511.50 
    7137.000    178942.50     99559.50 
    7139.009    179636.50     99316.50 
    7140.998    181048.50     99339.50 
    7143.010    182163.50     99409.50 
    7145.002    183033.50     99626.50 
    7146.995    183720.50     99777.50 
    7149.032    184405.50     99493.50 
    7151.005    185734.50     99569.50 
    7153.023    186772.50     99478.50 
    7154.999    187040.50     99226.50 
    7156.997    188008.50     99285.50 
    7158.997    187600.50     98857.50 
    7160.998    189268.50     99497.50 
    7162.978    190881.50    100093.50 
    7165.003    190205.50     99729.50 
    7167.007    189452.50     99483.50 
    7169.013    189398.50     99476.50 
    7170.998    188507.50     99194.50 
    7173.005    188222.50     99114.50 
    7175.014    188660.50     99475.50 
    7177.002    188119.50     99174.50 
    7179.014    188329.50     99265.50 
    7181.026    188581.50     99299.50 
    7182.996    188874.50     99340.50 
    7185.011    188473.50     99027.50 
    7187.027    189508.50     99384.50 
    7189.022    189869.50     99418.50 
    7190.997    189832.50     99220.50 
    7192.994    190440.50     99306.50 
    7195.037    191026.50     99404.50 
    7197.015    191058.50     99256.50 
    7199.016    191393.50     99339.50 
    7200.996    192241.50     99534.50 
    7203.021    191977.50     99163.50 
    7205.004    192263.50     99094.50 
    7207.031    192883.50     99094.50 
    7209.016    193617.50     99335.50 
    7211.024    194520.50     99475.50 
    7212.989    195051.50     99580.50 
    7215.021    194278.50     98990.50 
    7217.011    195068.50     99151.50 
    7219.001    196018.50     99475.50 
    7220.993    195902.50     99319.50 
    7223.008    196417.50     99428.50 
    7225.002    196091.50     99108.50 
    7226.997    196569.50     99222.50 
    7229.015    196873.50     99247.50 
    7231.013    197647.50     99410.50 
    7233.011    197615.50     99199.50 
    7235.011    198065.50     99299.50 
    7237.012    198502.50     99398.50 
    7239.036    198669.50     99292.50 
    7240.995    198996.50     99192.50 
    7243.021    199001.50     99091.50 
    7245.026    199547.50     99256.50 
    7247.011    199631.50     99259.50 
