#XDI/1.1  GSE/1.0
# Column.1: energy eV
# Column.2: itrans
# Column.3: i0
# Scan.end_time: 2006-12-17 16:48:13
# Scan.start_time: 2006-12-17 16:29:34
# Element.symbol:  Zn
# Element.edge:  K
# Facility.Name:  APS
# Beamline.Name:  13-BM-D
# Beamline.xray_source:  bending magnet
# Mono.d_spacing:  3.13555
# Mono.name: Si 111
# Beamline.Storage_Ring_Current: 95.2241 || S:SRcurrentAI.VAL
# Beamline.FOE_Mono_angle_readback: 12.0648 || 13BMA:m17.RBV
# Beamline.Mono_Energy_drive_val: 9459.0000 || 13BMA:E:Energy.VAL
# Beamline.Mono_Energy_readback: 9453.9983 || 13BMA:E:E_RBV
# Beamline.Mono_Beam_Offset: 21.0000 || 13BMA:E:height.VAL
# Beamline.I0_sensitivity_value: 10 || 13BMD:A3sens_num.VAL
# Beamline.I0_sensitivity_value: nA/V || 13BMD:A3sens_unit.VAL
# Beamline.I1_sensitivity_value: 2 || 13BMD:A2sens_num.VAL
# Beamline.I1_sensitivity_value: nA/V || 13BMD:A2sens_unit.VAL
# Beamline.FOE_Mono_Yout: 11.0387 || 13BMA:m10.VAL
# Beamline.FOE_Mono_Yin: 11.2521 || 13BMA:m11.VAL
# Beamline.FOE_Mono_Yup: 10.2891 || 13BMA:m12.VAL
# Beamline.FOE_Mono_Cage_Y: 0.000 || 13BMA:m13.VAL
# Beamline.FOE_Mono_Z: 52.577 || 13BMA:m14.VAL
# Beamline.FOE_Mono_angle: 12.0648 || 13BMA:m17.VAL
# Beamline.BMD_Horiz_Width: 6.000 || 13BMD:BMDHt2.C
# Beamline.BMD_Horiz_Center: 1.000 || 13BMD:BMDHt2.D
# Beamline.BMD_Vertical_Width: 1.000 || 13BMD:BMDVt2.C
# Beamline.BMD_Vertical_Center: -10.900 || 13BMD:BMDVt2.D
# Beamline.Sample_X: 43.259 || 13BMD:m70.VAL
# Beamline.Sample_Z__focus: 0.000 || 13BMD:m33.VAL
# Beamline.Sample_Y__height: 74.099 || 13BMD:m34.VAL
# Beamline.CCD_Z: 87.500 || 13BMD:m35.VAL
# Beamline.Hori__slit_X: 25.000 || 13BMD:m27.VAL
# Beamline.V_Bottom: 0.000 || 13BMD:m28.VAL
# Beamline.Hw_UpStream: 1000 || 13BMD:m78.VAL
# Beamline.Vp_UpStream: 944 || 13BMD:m79.VAL
# Beamline.Vw_UpStream: -165400 || 13BMD:m80.VAL
# ScanParameters.Start: Scan.Member: Value
# ScanParameters.E0: 9659.00
# ScanParameters.Legend: Start       Stop       Step       Npts       Time   Kspace?
# ScanParameters.Region1: -200.00    -10.000     5.0000     39.000     2.0000   0
# ScanParameters.Region2: -10.000     25.000    0.25000     141.00     2.0000   0
# ScanParameters.Region3: 2.5616     12.000   0.039993     237.00     2.0000   1
# ScanParameters.End: here
#-------------------------
#  energy  itrans  i0
    9459.017    207596.00    275939.00 
    9463.925    205126.00    271908.00 
    9468.992    203795.00    269420.00 
    9474.024    203171.00    267936.00 
    9479.026    202827.00    266745.00 
    9483.994    203033.00    266391.00 
    9489.005    203302.00    266007.00 
    9494.062    203538.00    265649.00 
    9499.006    203859.00    265415.00 
    9503.995    204097.00    265056.00 
    9508.988    204638.00    264996.00 
    9514.028    205082.00    264895.00 
    9518.993    205850.00    265061.00 
    9524.005    206232.00    264906.00 
    9529.020    206794.00    264918.00 
    9534.001    207349.00    264937.00 
    9538.988    207865.00    264915.00 
    9544.021    208403.00    264935.00 
    9549.019    208947.00    264940.00 
    9554.021    209542.00    265026.00 
    9558.990    210098.00    265056.00 
    9564.006    210553.00    265073.00 
    9569.024    210980.00    264905.00 
    9574.010    210398.00    263784.00 
    9579.000    211947.00    265147.00 
    9583.996    213372.00    266440.00 
    9588.997    213437.00    266106.00 
    9594.004    213898.00    266075.00 
    9599.016    214106.00    265939.00 
    9603.993    214435.00    265983.00 
    9609.016    214573.00    265753.00 
    9614.004    214900.00    265881.00 
    9618.996    214999.00    265781.00 
    9623.995    215257.00    265824.00 
    9628.999    215267.00    265759.00 
    9634.009    214202.00    264672.00 
    9639.023    214731.00    265937.00 
    9644.002    213412.00    265675.00 
    9649.027    210870.00    265492.00 
    9649.269    210896.00    265857.00 
    9649.510    211016.00    266214.00 
    9649.752    210915.00    266335.00 
    9649.993    210858.00    266577.00 
    9650.315    210654.00    266623.00 
    9650.517    210478.00    266709.00 
    9650.797    210420.00    266850.00 
    9651.040    210171.00    266884.00 
    9651.280    209816.00    266806.00 
    9651.521    209503.00    266771.00 
    9651.765    209321.00    266902.00 
    9652.006    209077.00    267001.00 
    9652.246    208777.00    267024.00 
    9652.529    208414.00    266998.00 
    9652.771    207915.00    266869.00 
    9653.051    207507.00    266867.00 
    9653.294    207083.00    266810.00 
    9653.535    206772.00    266912.00 
    9653.776    206311.00    266962.00 
    9654.059    205859.00    267002.00 
    9654.260    205270.00    266872.00 
    9654.501    204658.00    266791.00 
    9654.783    204029.00    266632.00 
    9655.024    203369.00    266562.00 
    9655.266    202975.00    267356.00 
    9655.549    202181.00    267065.00 
    9655.790    201397.00    267044.00 
    9655.991    200629.00    267107.00 
    9656.274    199612.00    267104.00 
    9656.516    198728.00    267169.00 
    9656.757    197737.00    267192.00 
    9656.998    196679.00    267186.00 
    9657.241    195592.00    267255.00 
    9657.522    194122.00    267396.00 
    9657.805    192707.00    267492.00 
    9658.046    190856.00    267283.00 
    9658.287    189064.00    267387.00 
    9658.530    187086.00    267552.00 
    9658.812    184258.00    267311.00 
    9659.014    181721.00    267190.00 
    9659.296    178860.00    267251.00 
    9659.498    175485.00    267166.00 
    9659.779    171802.00    267036.00 
    9660.021    166539.00    266981.00 
    9660.304    161619.00    266935.00 
    9660.545    156335.00    266836.00 
    9660.788    150497.00    266924.00 
    9660.989    144129.00    266930.00 
    9661.312    136145.00    266894.00 
    9661.554    128891.00    266916.00 
    9661.796    121139.00    266884.00 
    9662.037    112939.00    266700.00 
    9662.278    104396.00    266717.00 
    9662.521     94620.00    266923.00 
    9662.804     86332.00    266969.00 
    9663.047     78653.00    267006.00 
    9663.288     71635.00    267003.00 
    9663.490     65919.00    267065.00 
    9663.771     60498.00    267003.00 
    9664.015     57084.00    267044.00 
    9664.297     54346.00    267062.00 
    9664.538     52185.00    267113.00 
    9664.781     50465.00    266985.00 
    9665.023     48874.00    266892.00 
    9665.265     47896.00    266974.00 
    9665.548     47205.00    267044.00 
    9665.790     46846.00    267040.00 
    9666.031     46677.00    267192.00 
    9666.274     46787.00    267427.00 
    9666.517     47100.00    267438.00 
    9666.799     47371.00    267265.00 
    9667.042     47699.00    267177.00 
    9667.283     48045.00    267155.00 
    9667.525     48358.00    267065.00 
    9667.769     48604.00    267034.00 
    9668.051     48852.00    266912.00 
    9668.253     49147.00    266579.00 
    9668.536     49524.00    266670.00 
    9668.778     49895.00    266550.00 
    9669.060     50378.00    266581.00 
    9669.264     50930.00    266725.00 
    9669.545     51526.00    266724.00 
    9669.787     52284.00    266676.00 
    9669.989     53167.00    266781.00 
    9670.272     54416.00    266894.00 
    9670.555     55596.00    266939.00 
    9670.757     56802.00    267293.00 
    9671.040     58171.00    267564.00 
    9671.242     59485.00    267287.00 
    9671.526     60879.00    267161.00 
    9671.769     61914.00    267108.00 
    9672.010     62704.00    267016.00 
    9672.294     63283.00    266988.00 
    9672.496     63664.00    266932.00 
    9672.738     63866.00    266918.00 
    9673.062     63959.00    266768.00 
    9673.304     63985.00    266621.00 
    9673.506     63926.00    266448.00 
    9673.790     63772.00    266990.00 
    9674.032     63770.00    266282.00 
    9674.274     63750.00    267074.00 
    9674.558     63793.00    267030.00 
    9674.760     64004.00    266980.00 
    9675.042     64271.00    266905.00 
    9675.244     64664.00    267013.00 
    9675.528     65153.00    266926.00 
    9675.771     65633.00    266992.00 
    9676.055     66159.00    267024.00 
    9676.297     66584.00    266973.00 
    9676.539     67049.00    267002.00 
    9676.781     67428.00    266766.00 
    9677.025     67725.00    266864.00 
    9677.268     67936.00    266904.00 
    9677.552     68015.00    266919.00 
    9677.794     68049.00    266899.00 
    9678.036     68027.00    266980.00 
    9678.279     68033.00    266901.00 
    9678.522     67987.00    266941.00 
    9678.806     68045.00    266894.00 
    9679.048     68104.00    266786.00 
    9679.292     68272.00    266598.00 
    9679.534     68479.00    266519.00 
    9679.776     68848.00    266595.00 
    9680.021     69178.00    266627.00 
    9680.304     69497.00    266439.00 
    9680.546     69899.00    266596.00 
    9680.790     70259.00    266642.00 
    9681.032     70624.00    266543.00 
    9681.275     71077.00    266613.00 
    9681.520     71469.00    266777.00 
    9681.762     71782.00    266825.00 
    9682.044     72161.00    266899.00 
    9682.288     72450.00    266911.00 
    9682.491     72752.00    266968.00 
    9682.773     73005.00    266884.00 
    9683.059     73295.00    266961.00 
    9683.301     73502.00    266929.00 
    9683.543     73707.00    266937.00 
    9683.788     73895.00    266917.00 
    9684.030     74144.00    266971.00 
    9684.800     74959.00    266775.00 
    9685.610     75983.00    266798.00 
    9686.421     77271.00    266766.00 
    9687.232     78877.00    266766.00 
    9688.084     80597.00    266447.00 
    9688.896     81994.00    266403.00 
    9689.787     83322.00    266710.00 
    9690.640     84171.00    266548.00 
    9691.531     84606.00    266371.00 
    9692.425     84622.00    266556.00 
    9693.318     84180.00    266644.00 
    9694.253     83292.00    266581.00 
    9695.187     82184.00    266497.00 
    9696.121     81121.00    266580.00 
    9697.096     79994.00    266589.00 
    9698.071     78915.00    266470.00 
    9699.047     77906.00    266387.00 
    9700.021     77060.00    266546.00 
    9701.039     76148.00    266400.00 
    9702.056     75145.00    266580.00 
    9703.072     74023.00    266640.00 
    9704.131     72762.00    266623.00 
    9705.189     71664.00    266633.00 
    9706.247     70721.00    266513.00 
    9707.347     70069.00    266590.00 
    9708.404     69762.00    266439.00 
    9709.545     69405.00    265402.00 
    9710.646     69307.00    265627.00 
    9711.787     69493.00    267580.00 
    9712.929     69132.00    267612.00 
    9714.070     68667.00    267298.00 
    9715.212     68268.00    266821.00 
    9716.395     67950.00    266672.00 
    9717.579     67645.00    266545.00 
    9718.803     67364.00    266237.00 
    9720.028     67300.00    266252.00 
    9721.253     67285.00    266176.00 
    9722.478     67405.00    266329.00 
    9723.704     67581.00    266037.00 
    9724.970     67901.00    266212.00 
    9726.237     68299.00    265959.00 
    9727.506     68624.00    265622.00 
    9728.855     68542.00    263289.00 
    9730.124     69936.00    267008.00 
    9731.475     70696.00    267923.00 
    9732.783     71112.00    267488.00 
    9734.176     71590.00    267013.00 
    9735.527     72058.00    266816.00 
    9736.880     72502.00    266732.00 
    9738.231     72822.00    266604.00 
    9739.625     73089.00    266591.00 
    9741.021     73350.00    266422.00 
    9742.496     73585.00    266312.00 
    9743.892     73814.00    266536.00 
    9745.368     73939.00    266224.00 
    9746.806     74132.00    266401.00 
    9748.283     74361.00    266684.00 
    9749.804     74431.00    266696.00 
    9751.242     74391.00    266648.00 
    9752.804     74296.00    266555.00 
    9754.244     74207.00    266418.00 
    9755.807     74108.00    266443.00 
    9757.370     74017.00    266470.00 
    9758.893     73851.00    266253.00 
    9760.457     73765.00    266276.00 
    9762.021     73760.00    266190.00 
    9763.671     73766.00    266258.00 
    9765.277     73790.00    266074.00 
    9766.885     73820.00    266111.00 
    9768.494     73825.00    265877.00 
    9770.103     73820.00    265816.00 
    9771.754     73723.00    265695.00 
    9773.487     73239.00    264554.00 
    9775.098     72032.00    260859.00 
    9776.832     74125.00    269540.00 
    9778.527     73684.00    268326.00 
    9780.223     73398.00    267461.00 
    9781.959     73249.00    266951.00 
    9783.654     73128.00    266437.00 
    9785.477     72874.00    265420.00 
    9787.174     73222.00    266634.00 
    9789.036     73224.00    266522.00 
    9790.776     73190.00    266585.00 
    9792.561     73104.00    266655.00 
    9794.384     73026.00    266452.00 
    9796.167     72998.00    266363.00 
    9797.994     73127.00    266479.00 
    9799.901     73143.00    266101.00 
    9801.771     73108.00    265650.00 
    9803.641     73402.00    266386.00 
    9805.469     73501.00    266493.00 
    9807.382     73568.00    266421.00 
    9809.087     73518.00    266172.00 
    9811.209     73690.00    266123.00 
    9812.957     73795.00    266085.00 
    9815.122     74056.00    266239.00 
    9817.080     74218.00    266119.00 
    9818.997     74451.00    266255.00 
    9820.998     74620.00    266105.00 
    9822.958     74885.00    265960.00 
    9824.963     75080.00    265881.00 
    9827.007     75302.00    265921.00 
    9829.011     75252.00    265039.00 
    9831.060     75818.00    266433.00 
    9833.106     75948.00    266362.00 
    9835.197     76066.00    266377.00 
    9837.248     76143.00    266387.00 
    9839.383     76138.00    266196.00 
    9841.476     76218.00    266247.00 
    9843.570     76243.00    265996.00 
    9845.707     76156.00    265511.00 
    9847.846     75449.00    262736.00 
    9849.984     76107.00    264911.00 
    9852.208     76987.00    267652.00 
    9854.391     76847.00    266928.00 
    9856.575     76861.00    266566.00 
    9858.761     76936.00    266424.00 
    9860.988     77041.00    266256.00 
    9863.176     77156.00    266307.00 
    9865.405     77198.00    266254.00 
    9867.637     77230.00    266574.00 
    9869.995     77218.00    266551.00 
    9872.187     77213.00    266472.00 
    9874.505     77317.00    266407.00 
    9876.782     77276.00    266122.00 
    9879.103     77047.00    265264.00 
    9881.425     77416.00    266511.00 
    9883.749     77413.00    266384.00 
    9886.073     77404.00    266281.00 
    9888.440     77404.00    266104.00 
    9890.852     77481.00    265929.00 
    9893.179     77411.00    265342.00 
    9895.634     77797.00    266457.00 
    9898.049     77816.00    266126.00 
    9900.464     77849.00    266029.00 
    9902.882     77901.00    265798.00 
    9905.300     78006.00    265710.00 
    9907.761     78132.00    265884.00 
    9910.225     78198.00    265735.00 
    9912.688     78299.00    265697.00 
    9915.239     78412.00    265755.00 
    9917.706     78439.00    265691.00 
    9920.260     78181.00    264401.00 
    9922.771     78868.00    266129.00 
    9925.286     78966.00    265947.00 
    9927.842     79100.00    265679.00 
    9930.444     79158.00    265543.00 
    9932.961     79346.00    265655.00 
    9935.564     79566.00    265667.00 
    9938.256     79771.00    265619.00 
    9940.776     80002.00    265839.00 
    9943.429     80291.00    265837.00 
    9946.038     80460.00    265784.00 
    9948.691     80596.00    265789.00 
    9951.391     80681.00    265911.00 
    9954.089     80790.00    265822.00 
    9956.747     80836.00    265779.00 
    9959.408     80929.00    265735.00 
    9962.153     81088.00    265896.00 
    9964.902     81178.00    265784.00 
    9967.653     81148.00    265892.00 
    9970.405     81279.00    265920.00 
    9973.157     81375.00    265862.00 
    9975.912     81436.00    265684.00 
    9978.712     81592.00    265943.00 
    9981.470     81542.00    265599.00 
    9984.272     80451.00    261877.00 
    9987.120     82327.00    267785.00 
    9989.926     82250.00    267052.00 
    9992.776     82278.00    266469.00 
    9995.844     82371.00    266066.00 
    9998.524     82331.00    265855.00 
   10001.380     82233.00    265188.00 
   10004.280     82378.00    265254.00 
   10007.230     82878.00    266351.00 
   10010.170     82852.00    266010.00 
   10013.080     83092.00    265846.00 
   10016.030     83118.00    265752.00 
   10018.980     83151.00    265679.00 
   10021.940     83280.00    265521.00 
   10024.900     83446.00    265495.00 
   10027.940     83566.00    265362.00 
   10030.900     83703.00    265177.00 
   10033.950     83971.00    265105.00 
   10036.960     84103.00    265097.00 
   10040.010     84357.00    265206.00 
   10043.060     84525.00    265244.00 
   10046.120     84716.00    265229.00 
   10049.180     84874.00    265405.00 
   10052.280     85018.00    265489.00 
   10055.390     85151.00    265638.00 
   10058.540     85350.00    265729.00 
   10061.650     85475.00    265870.00 
   10064.800     85732.00    265888.00 
   10067.960     85856.00    265597.00 
   10071.120     86001.00    266094.00 
   10074.280     86081.00    266026.00 
   10077.490     86233.00    266073.00 
   10080.700     86316.00    265966.00 
   10083.870     86536.00    265988.00 
   10087.130     86677.00    266017.00 
   10090.300     86801.00    265982.00 
   10093.600     86865.00    265898.00 
   10096.870     87048.00    265919.00 
   10100.130     87088.00    265799.00 
   10103.400     87300.00    265847.00 
   10106.900     87317.00    265537.00 
   10110.040     87480.00    265669.00 
   10113.350     87569.00    265253.00 
   10116.680     87766.00    265553.00 
   10120.040     87878.00    265487.00 
   10123.370     88006.00    265694.00 
   10126.740     88167.00    265823.00 
   10130.160     88149.00    264562.00 
   10133.500     88431.00    265167.00 
   10136.960     88693.00    265663.00 
   10140.350     88869.00    265563.00 
   10143.780     88929.00    265654.00 
   10147.250     89011.00    265569.00 
   10150.680     89058.00    265483.00 
   10154.210     89272.00    265449.00 
   10157.650     89384.00    265501.00 
   10161.130     89515.00    265405.00 
   10164.620     89707.00    265268.00 
   10168.160     89885.00    265238.00 
   10171.650     90172.00    265152.00 
   10175.190     90275.00    265227.00 
   10178.730     90424.00    265268.00 
   10182.370     90602.00    265244.00 
   10185.870     90751.00    264811.00 
   10189.470     91158.00    265373.00 
   10193.060     91354.00    265351.00 
   10196.710     91340.00    265290.00 
   10200.310     91201.00    264382.00 
   10203.960     91523.00    265019.00 
   10207.620     92388.00    266870.00 
