#XDI/1.1  GSE/1.0
# Column.1: energy eV
# Column.2: itrans
# Column.3: i0
# Scan.end_time: 2006-12-17 07:53:01
# Scan.start_time: 2006-12-17 07:34:38
# Element.symbol:  Zn
# Element.edge:  K
# Mono.d_spacing:  3.13555
# Mono.name: Si 111
# Sample.name: zinc oxalate
# Sample.formula: ZnC2O4
# Sample.prep: powder on tape, many layers
# Sample.temperature: room temperature
# Beamline.Name:  13-BM-D
# Beamline.xray_source:  bending magnet
# Beamline.collimation: none
# Beamline.focusing: no
# Beamline.harmonic_rejection: Rh-coated mirror, detuned
# Beamline.Storage_Ring_Current: 93.2143 mA
# Facility.name: APS
# Facility.energy: 7.00 GeV
# Facility.xray_source: APS bending magnet
# Detector.I0: 10 nA/V 10 cm N2
# Detector.I1: 2 nA/V 10 cm Ar (?)
# ScanParameters.E0: 9659.00
# ScanParameters.Legend: Start       Stop       Step       Npts       Time   Kspace?
# ScanParameters.Region1: -200.00    -10.000     5.0000     39.000     2.0000   0
# ScanParameters.Region2: -10.000     25.000    0.25000     141.00     2.0000   0
# ScanParameters.Region3: 2.5616     12.000   0.039993     237.00     2.0000   1
#-------------------------
#  energy  itrans  i0
    9459.017    357704.00    270087.00
    9464.002    353780.00    266484.00
    9468.992    350954.00    263976.00
    9473.986    349666.00    262435.00
    9479.026    349135.00    261542.00
    9483.994    349074.00    260956.00
    9489.005    349216.00    260462.00
    9494.022    349539.00    260222.00
    9499.006    349996.00    260076.00
    9503.995    350480.00    259885.00
    9508.988    351367.00    259994.00
    9513.989    352029.00    259942.00
    9518.993    352694.00    259887.00
    9524.005    353318.00    259803.00
    9529.020    354056.00    259843.00
    9534.001    354673.00    259801.00
    9538.988    354998.00    259528.00
    9544.021    355986.00    259782.00
    9549.019    356361.00    259564.00
    9554.021    357152.00    259590.00
    9558.990    357773.00    259533.00
    9564.006    358266.00    259451.00
    9569.024    358845.00    259331.00
    9574.010    357193.00    257622.00
    9579.000    360526.00    259568.00
    9583.996    362004.00    260209.00
    9588.997    362305.00    259978.00
    9594.004    363144.00    260169.00
    9599.016    363280.00    259841.00
    9603.993    364104.00    260013.00
    9609.016    364533.00    259887.00
    9614.004    364921.00    259802.00
    9618.996    365563.00    259924.00
    9623.995    365791.00    259959.00
    9628.999    365937.00    259950.00
    9634.009    364875.00    259225.00
    9639.023    366004.00    260323.00
    9644.002    364536.00    260170.00
    9649.027    361728.00    260118.00
    9649.269    361861.00    260434.00
    9649.510    362270.00    260918.00
    9649.752    362163.00    261045.00
    9649.993    362201.00    261232.00
    9650.275    362185.00    261436.00
    9650.517    361885.00    261435.00
    9650.757    361706.00    261463.00
    9650.998    361396.00    261425.00
    9651.280    361187.00    261420.00
    9651.562    360855.00    261432.00
    9651.805    360471.00    261424.00
    9652.006    359988.00    261332.00
    9652.246    359479.00    261192.00
    9652.529    358772.00    261019.00
    9652.771    358506.00    261170.00
    9653.011    358071.00    261163.00
    9653.252    357324.00    260979.00
    9653.535    356962.00    261050.00
    9653.776    355998.00    260806.00
    9654.059    355610.00    260943.00
    9654.300    354756.00    260731.00
    9654.541    354347.00    260856.00
    9654.742    353434.00    260736.00
    9655.024    352680.00    260827.00
    9655.266    351960.00    260867.00
    9655.507    351440.00    261082.00
    9655.750    350409.00    261010.00
    9655.991    349831.00    261225.00
    9656.274    348936.00    261365.00
    9656.556    348077.00    261506.00
    9656.757    346910.00    261531.00
    9656.998    345751.00    261618.00
    9657.241    344684.00    261852.00
    9657.522    342674.00    261779.00
    9657.805    340600.00    261619.00
    9658.046    338590.00    261665.00
    9658.248    336427.00    261772.00
    9658.489    333716.00    261732.00
    9658.771    330049.00    261521.00
    9659.054    326578.00    261446.00
    9659.296    322748.00    261393.00
    9659.538    318318.00    261365.00
    9659.739    313466.00    261382.00
    9660.021    306987.00    261376.00
    9660.304    300916.00    261431.00
    9660.545    294666.00    261414.00
    9660.788    288043.00    261440.00
    9661.029    281118.00    261385.00
    9661.271    272745.00    261426.00
    9661.554    264547.00    261457.00
    9661.796    255998.00    261430.00
    9662.037    245678.00    261466.00
    9662.238    233510.00    261433.00
    9662.521    217436.00    261331.00
    9662.804    201533.00    261344.00
    9663.047    185060.00    261215.00
    9663.288    168791.00    261111.00
    9663.490    152778.00    260933.00
    9663.771    137534.00    261102.00
    9664.055    126249.00    260965.00
    9664.297    116822.00    260888.00
    9664.498    109530.00    261048.00
    9664.781    103094.00    261008.00
    9665.023     97109.00    260883.00
    9665.265     93283.00    261161.00
    9665.548     89901.00    260987.00
    9665.750     87070.00    260959.00
    9665.991     84722.00    261158.00
    9666.274     82277.00    261222.00
    9666.517     80369.00    261068.00
    9666.759     78681.00    260972.00
    9667.002     77335.00    261241.00
    9667.283     76111.00    261335.00
    9667.525     74847.00    261355.00
    9667.769     73960.00    261344.00
    9668.051     73390.00    261364.00
    9668.253     73098.00    261327.00
    9668.536     73289.00    261236.00
    9668.778     74355.00    261259.00
    9669.060     76051.00    261191.00
    9669.264     78611.00    261233.00
    9669.545     81812.00    261249.00
    9669.787     85547.00    261323.00
    9670.031     89882.00    261394.00
    9670.272     95245.00    261387.00
    9670.555    100071.00    261384.00
    9670.757    105013.00    261426.00
    9671.040    109842.00    261504.00
    9671.242    114513.00    261597.00
    9671.526    119232.00    261648.00
    9671.769    122591.00    261606.00
    9672.010    125512.00    261478.00
    9672.294    127959.00    261445.00
    9672.496    130002.00    261324.00
    9672.738    131952.00    261333.00
    9673.021    133789.00    261352.00
    9673.264    135202.00    261332.00
    9673.506    136427.00    261381.00
    9673.790    137630.00    261424.00
    9673.992    138752.00    261498.00
    9674.274    139946.00    261492.00
    9674.517    141030.00    261518.00
    9674.800    142042.00    261469.00
    9675.002    143075.00    261432.00
    9675.285    144044.00    261347.00
    9675.528    145218.00    261303.00
    9675.771    146297.00    261205.00
    9676.055    147277.00    261066.00
    9676.297    148405.00    260964.00
    9676.539    149703.00    261101.00
    9676.781    150965.00    261193.00
    9677.025    152293.00    261048.00
    9677.308    153445.00    260972.00
    9677.552    154509.00    260954.00
    9677.754    155595.00    261144.00
    9678.036    156405.00    261106.00
    9678.279    157039.00    261040.00
    9678.522    157677.00    261032.00
    9678.806    158183.00    261222.00
    9679.048    158548.00    261307.00
    9679.292    158751.00    261334.00
    9679.534    158845.00    261361.00
    9679.776    158868.00    261396.00
    9680.021    158768.00    261433.00
    9680.304    158709.00    261508.00
    9680.546    158566.00    261666.00
    9680.790    158206.00    261598.00
    9680.992    157786.00    261439.00
    9681.275    157263.00    261418.00
    9681.520    156860.00    261477.00
    9681.802    156350.00    261487.00
    9682.044    155861.00    261541.00
    9682.288    155340.00    261457.00
    9682.491    154871.00    261405.00
    9682.773    154441.00    261331.00
    9683.059    154141.00    261309.00
    9683.301    153955.00    261277.00
    9683.543    153880.00    261266.00
    9683.746    153851.00    261296.00
    9683.990    153863.00    261310.00
    9684.800    154235.00    261245.00
    9685.610    154781.00    261250.00
    9686.421    155273.00    261282.00
    9687.232    155643.00    261294.00
    9688.084    156611.00    261229.00
    9688.896    158691.00    261212.00
    9689.787    162455.00    261291.00
    9690.640    166798.00    261237.00
    9691.573    170876.00    261232.00
    9692.425    173552.00    261175.00
    9693.318    174458.00    261130.00
    9694.253    173500.00    260961.00
    9695.187    171044.00    260839.00
    9696.121    167594.00    260969.00
    9697.096    163750.00    260775.00
    9698.071    160037.00    260721.00
    9699.047    157034.00    260719.00
    9700.021    154922.00    260695.00
    9701.039    152997.00    260542.00
    9702.056    151490.00    260666.00
    9703.072    149645.00    260474.00
    9704.131    147459.00    260606.00
    9705.189    145195.00    260608.00
    9706.247    142606.00    260644.00
    9707.347    139459.00    260676.00
    9708.404    136174.00    260594.00
    9709.545    132283.00    259846.00
    9710.646    129831.00    260257.00
    9711.787    128812.00    261920.00
    9712.929    127854.00    261603.00
    9714.070    127705.00    261382.00
    9715.212    128080.00    261221.00
    9716.395    128956.00    261141.00
    9717.537    130224.00    261099.00
    9718.763    131790.00    261096.00
    9719.986    133542.00    261053.00
    9721.253    135238.00    260988.00
    9722.478    136782.00    260884.00
    9723.704    138406.00    261075.00
    9724.970    139858.00    261093.00
    9726.197    140965.00    260851.00
    9727.506    141922.00    260242.00
    9728.855    141913.00    258108.00
    9730.165    145154.00    262365.00
    9731.433    146003.00    262496.00
    9732.825    146397.00    261762.00
    9734.176    147104.00    261482.00
    9735.527    147821.00    261137.00
    9736.880    148607.00    260883.00
    9738.231    149385.00    260881.00
    9739.625    150022.00    260589.00
    9741.021    150929.00    260710.00
    9742.496    151703.00    260607.00
    9743.892    152305.00    260642.00
    9745.368    152483.00    260191.00
    9746.806    152914.00    260551.00
    9748.283    153579.00    261482.00
    9749.804    153975.00    262324.00
    9751.077    154675.00    263695.00
    9752.764    155328.00    264766.00
    9754.244    156083.00    266121.00
    9755.807    156831.00    267605.00
    9757.370    157162.00    268595.00
    9758.893    157608.00    270051.00
    9760.457    157966.00    271601.00
    9762.021    158000.00    272970.00
    9763.671    157892.00    274306.00
    9765.277    157633.00    275524.00
    9766.885    157297.00    276631.00
    9768.494    156950.00    277735.00
    9770.103    156520.00    278522.00
    9771.794    156345.00    279337.00
    9773.487    155663.00    279109.00
    9775.098    153710.00    276459.00
    9776.832    158957.00    286309.00
    9778.527    158384.00    285714.00
    9780.223    158220.00    285632.00
    9781.959    158457.00    285829.00
    9783.654    158839.00    285933.00
    9785.477    158803.00    285051.00
    9787.174    160114.00    286484.00
    9788.995    160696.00    286469.00
    9790.776    161354.00    286506.00
    9792.561    161853.00    286397.00
    9794.384    162417.00    286246.00
    9796.167    163021.00    286316.00
    9797.994    163638.00    286192.00
    9799.901    164010.00    285729.00
    9801.771    164322.00    285356.00
    9803.641    164944.00    285788.00
    9805.469    165267.00    285863.00
    9807.382    165432.00    285643.00
    9809.295    165621.00    285603.00
    9811.209    165698.00    285418.00
    9813.124    165695.00    285215.00
    9815.122    165919.00    285241.00
    9817.039    166010.00    285165.00
    9819.039    166131.00    285233.00
    9820.957    166217.00    285262.00
    9822.958    166384.00    285276.00
    9824.963    166578.00    285276.00
    9827.049    166916.00    285277.00
    9829.011    166480.00    284059.00
    9831.060    167720.00    285755.00
    9833.106    167873.00    285503.00
    9835.239    168142.00    285625.00
    9837.248    168382.00    285564.00
    9839.340    168485.00    285364.00
    9841.476    168729.00    285294.00
    9843.570    169085.00    285402.00
    9845.749    169197.00    285214.00
    9847.846    167337.00    281767.00
    9849.984    170005.00    286054.00
    9852.208    170957.00    287587.00
    9854.391    170439.00    286660.00
    9856.575    170207.00    286356.00
    9858.761    170026.00    286031.00
    9860.905    169963.00    285856.00
    9863.176    169804.00    285755.00
    9865.405    169742.00    285763.00
    9867.637    169707.00    285723.00
    9869.954    169661.00    285598.00
    9872.229    169822.00    285628.00
    9874.464    169991.00    285783.00
    9876.782    169960.00    285425.00
    9879.103    169662.00    284702.00
    9881.384    170570.00    285975.00
    9883.749    170629.00    285769.00
    9886.073    170801.00    285655.00
    9888.440    171102.00    285613.00
    9890.810    171434.00    285685.00
    9893.221    171209.00    284803.00
    9895.634    172131.00    285794.00
    9898.049    172371.00    285695.00
    9900.464    172586.00    285581.00
    9902.882    172845.00    285545.00
    9905.300    173210.00    285533.00
    9907.761    173434.00    285333.00
    9910.225    173756.00    285396.00
    9912.730    174231.00    285549.00
    9915.239    174416.00    285538.00
    9917.750    174654.00    285414.00
    9920.260    174108.00    284030.00
    9922.771    175698.00    286100.00
    9925.286    175944.00    285865.00
    9927.842    176145.00    285715.00
    9930.400    176482.00    285591.00
    9932.961    176920.00    285701.00
    9935.564    177341.00    285714.00
    9938.214    177674.00    285618.00
    9940.776    178190.00    285867.00
    9943.471    178317.00    285608.00
    9946.081    178728.00    285775.00
    9948.734    178863.00    285561.00
    9951.391    179072.00    285552.00
    9954.047    179219.00    285493.00
    9956.747    179386.00    285436.00
    9959.450    179457.00    285327.00
    9962.153    179560.00    285175.00
    9964.860    179698.00    285177.00
    9967.653    179800.00    285222.00
    9970.405    179923.00    285122.00
    9973.157    180103.00    285211.00
    9975.912    180156.00    285069.00
    9978.712    180428.00    285189.00
    9981.470    180436.00    284866.00
    9984.272    178387.00    281309.00
    9987.120    182510.00    287467.00
    9989.969    182207.00    286594.00
    9992.776    182088.00    285984.00
    9995.628    182185.00    285630.00
    9998.524    182285.00    285347.00
   10001.380    182235.00    284740.00
   10004.330    182288.00    284206.00
   10007.230    183523.00    285636.00
   10010.130    183621.00    285233.00
   10013.080    183949.00    285128.00
   10015.990    184206.00    284984.00
   10018.940    184528.00    285001.00
   10021.980    184947.00    285135.00
   10024.940    185375.00    285297.00
   10027.940    185698.00    285234.00
   10030.940    186025.00    285219.00
   10033.950    186417.00    285392.00
   10036.960    186772.00    285434.00
   10040.010    186991.00    285349.00
   10043.060    187453.00    285527.00
   10046.120    187583.00    285412.00
   10049.220    187965.00    285441.00
   10052.330    188246.00    285437.00
   10055.390    188741.00    285667.00
   10058.540    188916.00    285494.00
   10061.650    189335.00    285633.00
   10064.800    189667.00    285572.00
   10067.960    189852.00    285297.00
   10071.120    190112.00    285368.00
   10074.280    190387.00    285405.00
   10077.490    190714.00    285396.00
   10080.700    190826.00    285156.00
   10083.870    191140.00    285158.00
   10087.130    191461.00    285123.00
   10090.340    191726.00    285084.00
   10093.600    191853.00    284868.00
   10096.870    192074.00    284843.00
   10100.130    192377.00    284805.00
   10103.400    192618.00    284695.00
   10106.720    192822.00    284530.00
   10110.040    193315.00    284792.00
   10113.350    193610.00    284772.00
   10116.680    193917.00    284758.00
   10119.960    194320.00    284737.00
   10123.370    194625.00    284774.00
   10126.740    194990.00    284792.00
   10130.160    195357.00    284785.00
   10133.540    195727.00    284857.00
   10136.920    196255.00    285034.00
   10140.350    196578.00    285025.00
   10143.730    196798.00    284871.00
   10147.250    197318.00    285054.00
   10150.640    197616.00    285044.00
   10154.120    198105.00    285186.00
   10157.650    198513.00    285203.00
   10161.130    198767.00    285148.00
   10164.620    199217.00    285281.00
   10168.160    199629.00    285322.00
   10171.650    199922.00    285176.00
   10175.190    200244.00    285101.00
   10178.730    200558.00    285181.00
   10182.370    200874.00    284981.00
   10185.870    200906.00    284573.00
   10189.510    201888.00    285357.00
   10193.060    202077.00    285092.00
   10196.710    202340.00    285024.00
   10200.310    201965.00    284015.00
   10203.960    203172.00    285266.00
   10207.620    204438.00    286323.00
