#XDI/1.1  GSE/1.0
# Column.1: energy eV
# Column.2: itrans
# Column.3: i0
# Scan.end_time: 2006-12-17 12:02:21
# Scan.start_time: 2006-12-17 11:43:52
# Element.symbol:  Zn
# Element.edge:  K
# Facility.Name:  APS
# Beamline.Name:  13-BM-D
# Beamline.xray_source:  bending magnet
# Mono.dspacing:  3.13555
# Mono.name: Si 111
# Beamline.Storage_Ring_Current: 98.8742 || S:SRcurrentAI.VAL
# Beamline.FOE_Mono_angle_readback: 12.0648 || 13BMA:m17.RBV
# Beamline.Mono_Energy_drive_val: 9459.0000 || 13BMA:E:Energy.VAL
# Beamline.Mono_Energy_readback: 9453.9983 || 13BMA:E:E_RBV
# Beamline.Mono_Beam_Offset: 21.0000 || 13BMA:E:height.VAL
# Beamline.I0_sensitivity_value: 10 || 13BMD:A3sens_num.VAL
# Beamline.I0_sensitivity_value: nA/V || 13BMD:A3sens_unit.VAL
# Beamline.I1_sensitivity_value: 2 || 13BMD:A2sens_num.VAL
# Beamline.I1_sensitivity_value: nA/V || 13BMD:A2sens_unit.VAL
# Beamline.FOE_Mono_Yout: 11.0387 || 13BMA:m10.VAL
# Beamline.FOE_Mono_Yin: 11.2521 || 13BMA:m11.VAL
# Beamline.FOE_Mono_Yup: 10.2891 || 13BMA:m12.VAL
# Beamline.FOE_Mono_Cage_Y: 0.000 || 13BMA:m13.VAL
# Beamline.FOE_Mono_Z: 52.577 || 13BMA:m14.VAL
# Beamline.FOE_Mono_angle: 12.0648 || 13BMA:m17.VAL
# Beamline.BMD_Horiz_Width: 6.000 || 13BMD:BMDHt2.C
# Beamline.BMD_Horiz_Center: 1.000 || 13BMD:BMDHt2.D
# Beamline.BMD_Vertical_Width: 1.000 || 13BMD:BMDVt2.C
# Beamline.BMD_Vertical_Center: -10.900 || 13BMD:BMDVt2.D
# Beamline.Sample_X: 166.259 || 13BMD:m70.VAL
# Beamline.Sample_Z__focus: 0.000 || 13BMD:m33.VAL
# Beamline.Sample_Y__height: 64.099 || 13BMD:m34.VAL
# Beamline.CCD_Z: 87.500 || 13BMD:m35.VAL
# Beamline.Hori__slit_X: 25.000 || 13BMD:m27.VAL
# Beamline.V_Bottom: 0.000 || 13BMD:m28.VAL
# Beamline.Hw_UpStream: 1000 || 13BMD:m78.VAL
# Beamline.Vp_UpStream: 944 || 13BMD:m79.VAL
# Beamline.Vw_UpStream: -165400 || 13BMD:m80.VAL
# ScanParameters.Start: Scan.Member: Value
# ScanParameters.E0: 9659.00
# ScanParameters.Legend: Start       Stop       Step       Npts       Time   Kspace?
# ScanParameters.Region1: -200.00    -10.000     5.0000     39.000     2.0000   0
# ScanParameters.Region2: -10.000     25.000    0.25000     141.00     2.0000   0
# ScanParameters.Region3: 2.5616     12.000   0.039993     237.00     2.0000   1
# ScanParameters.End: here
#-------------------------
#  energy  itrans  i0
    9459.017     30116.00    285416.00 
    9464.002     29853.00    281202.00 
    9468.992     29806.00    279048.00 
    9474.024     29873.00    277944.00 
    9479.026     29900.00    276992.00 
    9483.994     29963.00    276138.00 
    9489.005     30094.00    275889.00 
    9494.022     30239.00    275656.00 
    9499.006     30418.00    275654.00 
    9503.995     30547.00    275381.00 
    9508.988     30742.00    275476.00 
    9513.989     30898.00    275416.00 
    9518.993     31102.00    275524.00 
    9524.005     31254.00    275549.00 
    9529.020     31408.00    275450.00 
    9534.001     31549.00    275507.00 
    9538.988     31674.00    275324.00 
    9544.021     31874.00    275486.00 
    9549.019     32017.00    275444.00 
    9554.021     32186.00    275491.00 
    9558.990     32339.00    275503.00 
    9564.006     32510.00    275508.00 
    9569.024     32642.00    275428.00 
    9574.010     32452.00    273804.00 
    9579.000     32955.00    275450.00 
    9583.996     33223.00    276664.00 
    9588.997     33309.00    276229.00 
    9594.004     33439.00    276169.00 
    9599.016     33550.00    275984.00 
    9603.993     33638.00    275819.00 
    9609.016     33731.00    275710.00 
    9614.004     33845.00    275763.00 
    9618.996     33951.00    275529.00 
    9623.995     34069.00    275573.00 
    9628.999     34166.00    275705.00 
    9634.009     33998.00    274455.00 
    9639.023     34137.00    276078.00 
    9644.002     33876.00    275878.00 
    9649.027     33151.00    275745.00 
    9649.269     33142.00    276005.00 
    9649.510     33178.00    276668.00 
    9649.752     33137.00    276978.00 
    9649.993     33097.00    277085.00 
    9650.315     33022.00    277247.00 
    9650.517     32956.00    277382.00 
    9650.797     32877.00    277423.00 
    9651.040     32793.00    277467.00 
    9651.280     32700.00    277482.00 
    9651.562     32572.00    277347.00 
    9651.765     32486.00    277345.00 
    9652.006     32339.00    277261.00 
    9652.246     32219.00    277286.00 
    9652.529     32061.00    277209.00 
    9652.810     31903.00    277206.00 
    9653.051     31730.00    277220.00 
    9653.252     31550.00    277137.00 
    9653.535     31301.00    276891.00 
    9653.776     31083.00    276971.00 
    9654.059     30878.00    277122.00 
    9654.260     30659.00    277308.00 
    9654.501     30360.00    277300.00 
    9654.742     30028.00    277365.00 
    9655.064     29657.00    277355.00 
    9655.266     29251.00    277365.00 
    9655.549     28787.00    277434.00 
    9655.750     28222.00    277446.00 
    9656.031     27641.00    277435.00 
    9656.274     26872.00    277420.00 
    9656.516     26109.00    277333.00 
    9656.757     25165.00    277268.00 
    9656.998     24133.00    277236.00 
    9657.241     22820.00    277195.00 
    9657.522     21028.00    277152.00 
    9657.805     19170.00    277170.00 
    9658.046     17168.00    277201.00 
    9658.248     15065.00    277301.00 
    9658.530     13049.00    277347.00 
    9658.771     10840.00    277386.00 
    9659.054      9257.00    277377.00 
    9659.296      7880.00    277398.00 
    9659.538      6709.00    277313.00 
    9659.739      5823.00    277221.00 
    9660.063      4959.00    277248.00 
    9660.304      4381.00    277145.00 
    9660.545      3934.00    277015.00 
    9660.788      3545.00    276905.00 
    9660.989      3232.00    276846.00 
    9661.271      2969.00    276913.00 
    9661.554      2777.00    276729.00 
    9661.796      2637.00    276793.00 
    9662.037      2517.00    276753.00 
    9662.278      2414.00    276603.00 
    9662.521      2309.00    276882.00 
    9662.804      2227.00    276836.00 
    9663.047      2148.00    276861.00 
    9663.288      2078.00    277041.00 
    9663.530      2017.00    277196.00 
    9663.771      1935.00    277239.00 
    9664.055      1883.00    277328.00 
    9664.297      1796.00    277270.00 
    9664.538      1730.00    277260.00 
    9664.781      1662.00    277349.00 
    9665.023      1579.00    277228.00 
    9665.265      1517.00    277368.00 
    9665.508      1459.00    277439.00 
    9665.790      1406.00    277520.00 
    9666.031      1350.00    277454.00 
    9666.274      1290.00    277330.00 
    9666.517      1244.00    277205.00 
    9666.799      1209.00    277144.00 
    9667.042      1193.00    277104.00 
    9667.283      1164.00    276947.00 
    9667.525      1124.00    276647.00 
    9667.809      1104.00    276562.00 
    9668.011      1066.00    276393.00 
    9668.293      1048.00    276391.00 
    9668.536      1022.00    276519.00 
    9668.818      1022.00    276433.00 
    9669.060      1040.00    276679.00 
    9669.304      1062.00    276630.00 
    9669.545      1099.00    276811.00 
    9669.787      1128.00    277049.00 
    9669.989      1178.00    277116.00 
    9670.272      1231.00    277162.00 
    9670.555      1287.00    277258.00 
    9670.757      1355.00    277296.00 
    9671.040      1417.00    277261.00 
    9671.282      1496.00    277251.00 
    9671.526      1573.00    277342.00 
    9671.809      1636.00    277337.00 
    9672.010      1685.00    277447.00 
    9672.252      1735.00    277540.00 
    9672.536      1772.00    277338.00 
    9672.738      1802.00    277177.00 
    9673.021      1838.00    277150.00 
    9673.304      1865.00    277108.00 
    9673.506      1886.00    276997.00 
    9673.790      1895.00    276824.00 
    9674.032      1926.00    276704.00 
    9674.274      1947.00    276940.00 
    9674.558      1951.00    277020.00 
    9674.760      1957.00    276911.00 
    9675.042      1959.00    276845.00 
    9675.244      1930.00    276815.00 
    9675.528      1927.00    276966.00 
    9675.771      1922.00    276998.00 
    9676.055      1917.00    277087.00 
    9676.297      1926.00    276983.00 
    9676.539      1921.00    276892.00 
    9676.781      1930.00    276783.00 
    9677.025      1941.00    276983.00 
    9677.268      1950.00    277013.00 
    9677.552      1958.00    277093.00 
    9677.794      1975.00    277073.00 
    9678.036      2002.00    277048.00 
    9678.279      2029.00    277036.00 
    9678.522      2040.00    276971.00 
    9678.806      2047.00    276994.00 
    9679.048      2069.00    277039.00 
    9679.292      2099.00    277036.00 
    9679.534      2142.00    277038.00 
    9679.776      2192.00    277130.00 
    9680.021      2242.00    277389.00 
    9680.304      2240.00    277335.00 
    9680.546      2276.00    277065.00 
    9680.790      2283.00    276665.00 
    9681.032      2289.00    276831.00 
    9681.315      2308.00    277008.00 
    9681.520      2323.00    276923.00 
    9681.762      2362.00    276748.00 
    9682.044      2394.00    276631.00 
    9682.288      2406.00    276831.00 
    9682.491      2402.00    276770.00 
    9682.773      2403.00    276645.00 
    9683.059      2404.00    276888.00 
    9683.301      2409.00    277022.00 
    9683.543      2417.00    277047.00 
    9683.788      2406.00    277096.00 
    9684.030      2404.00    277060.00 
    9684.800      2374.00    276914.00 
    9685.610      2340.00    276788.00 
    9686.421      2305.00    276766.00 
    9687.232      2244.00    276907.00 
    9688.084      2172.00    277028.00 
    9688.896      2108.00    277078.00 
    9689.787      2041.00    277090.00 
    9690.640      1969.00    277116.00 
    9691.531      1892.00    277078.00 
    9692.425      1834.00    277068.00 
    9693.318      1778.00    277121.00 
    9694.253      1749.00    277072.00 
    9695.187      1710.00    277086.00 
    9696.121      1702.00    277113.00 
    9697.096      1700.00    277059.00 
    9698.071      1700.00    277048.00 
    9699.047      1712.00    277027.00 
    9700.021      1747.00    277062.00 
    9701.039      1766.00    276989.00 
    9702.056      1820.00    276905.00 
    9703.072      1857.00    276737.00 
    9704.131      1888.00    276583.00 
    9705.189      1916.00    276783.00 
    9706.247      1931.00    276460.00 
    9707.347      1945.00    276555.00 
    9708.404      1937.00    276180.00 
    9709.545      1908.00    275520.00 
    9710.646      1882.00    275445.00 
    9711.787      1865.00    277360.00 
    9712.929      1849.00    276974.00 
    9714.070      1850.00    276695.00 
    9715.212      1857.00    276539.00 
    9716.395      1864.00    276600.00 
    9717.579      1866.00    276337.00 
    9718.803      1872.00    276541.00 
    9719.986      1889.00    276422.00 
    9721.253      1913.00    276564.00 
    9722.478      1907.00    276481.00 
    9723.704      1908.00    276543.00 
    9724.970      1903.00    276638.00 
    9726.156      1905.00    276404.00 
    9727.506      1886.00    276002.00 
    9728.814      1836.00    273575.00 
    9730.124      1830.00    277646.00 
    9731.433      1799.00    278475.00 
    9732.825      1766.00    277773.00 
    9734.176      1751.00    277464.00 
    9735.527      1731.00    277075.00 
    9736.880      1726.00    276886.00 
    9738.231      1738.00    276881.00 
    9739.625      1757.00    276677.00 
    9741.021      1787.00    276558.00 
    9742.496      1823.00    276680.00 
    9743.933      1863.00    276490.00 
    9745.368      1911.00    276254.00 
    9746.806      1947.00    276173.00 
    9748.283      1958.00    276558.00 
    9749.804      1984.00    276350.00 
    9751.242      2012.00    276500.00 
    9752.804      2055.00    276354.00 
    9754.244      2072.00    276507.00 
    9755.766      2112.00    276464.00 
    9757.370      2164.00    276457.00 
    9758.893      2180.00    276554.00 
    9760.457      2165.00    276354.00 
    9762.021      2168.00    276473.00 
    9763.671      2148.00    276341.00 
    9765.277      2119.00    276552.00 
    9766.885      2087.00    276416.00 
    9768.494      2081.00    276445.00 
    9770.103      2058.00    276173.00 
    9771.754      2037.00    276190.00 
    9773.487      1978.00    274954.00 
    9775.098      1924.00    271074.00 
    9776.832      1950.00    279801.00 
    9778.527      1920.00    278635.00 
    9780.223      1905.00    277559.00 
    9781.959      1904.00    276895.00 
    9783.654      1909.00    276524.00 
    9785.477      1920.00    275138.00 
    9787.174      1940.00    276428.00 
    9788.995      1957.00    276074.00 
    9790.776      1971.00    276211.00 
    9792.561      1984.00    275976.00 
    9794.425      2003.00    275894.00 
    9796.167      1996.00    275953.00 
    9797.994      2004.00    275987.00 
    9799.901      2011.00    275959.00 
    9801.771      2034.00    275610.00 
    9803.641      2064.00    276731.00 
    9805.303      2099.00    276857.00 
    9807.382      2126.00    276943.00 
    9809.295      2174.00    277045.00 
    9811.209      2202.00    277000.00 
    9813.124      2249.00    276959.00 
    9815.122      2296.00    276897.00 
    9817.039      2332.00    276842.00 
    9819.039      2340.00    276903.00 
    9820.957      2328.00    276679.00 
    9822.958      2311.00    276422.00 
    9824.795      2298.00    276375.00 
    9827.007      2269.00    276268.00 
    9829.055      2241.00    275095.00 
    9831.060      2229.00    276642.00 
    9833.149      2229.00    276341.00 
    9835.239      2222.00    276183.00 
    9837.248      2221.00    276087.00 
    9839.340      2215.00    275901.00 
    9841.476      2233.00    275835.00 
    9843.570      2226.00    275801.00 
    9845.707      2215.00    275612.00 
    9847.846      2190.00    272855.00 
    9849.984      2218.00    275191.00 
    9852.208      2223.00    277593.00 
    9854.391      2224.00    277003.00 
    9856.575      2226.00    276611.00 
    9858.761      2217.00    276294.00 
    9860.947      2220.00    276224.00 
    9863.176      2223.00    276002.00 
    9865.405      2230.00    276127.00 
    9867.637      2264.00    276101.00 
    9869.954      2289.00    276137.00 
    9872.187      2328.00    276316.00 
    9874.505      2353.00    276072.00 
    9876.782      2390.00    276297.00 
    9879.103      2413.00    275328.00 
    9881.384      2452.00    276609.00 
    9883.749      2485.00    276453.00 
    9886.073      2545.00    276480.00 
    9888.440      2556.00    276189.00 
    9890.810      2561.00    276410.00 
    9893.179      2555.00    275682.00 
    9895.634      2560.00    276492.00 
    9898.049      2557.00    276446.00 
    9900.464      2555.00    276543.00 
    9902.924      2549.00    276411.00 
    9905.342      2550.00    276360.00 
    9907.761      2559.00    276135.00 
    9910.225      2568.00    276348.00 
    9912.688      2565.00    276180.00 
    9915.239      2576.00    276276.00 
    9917.750      2573.00    276119.00 
    9920.260      2570.00    274814.00 
    9922.771      2590.00    276647.00 
    9925.286      2598.00    276275.00 
    9927.842      2596.00    276178.00 
    9930.400      2574.00    276099.00 
    9932.961      2585.00    275993.00 
    9935.564      2598.00    276057.00 
    9938.214      2609.00    276103.00 
    9940.734      2596.00    276091.00 
    9943.429      2628.00    276187.00 
    9946.038      2644.00    276136.00 
    9948.905      2667.00    276207.00 
    9951.262      2686.00    276084.00 
    9954.047      2687.00    276114.00 
    9956.747      2728.00    276184.00 
    9959.450      2766.00    276169.00 
    9962.153      2805.00    276114.00 
    9964.860      2835.00    276231.00 
    9967.653      2853.00    276123.00 
    9970.405      2874.00    275997.00 
    9973.157      2888.00    276150.00 
    9975.912      2903.00    275776.00 
    9978.712      2920.00    275979.00 
    9981.470      2936.00    275573.00 
    9984.272      2896.00    271815.00 
    9987.120      2973.00    277963.00 
    9989.926      2964.00    277234.00 
    9992.776      2969.00    276754.00 
    9995.628      3003.00    276290.00 
    9998.524      3017.00    276195.00 
   10001.380      3018.00    275566.00 
   10004.330      3035.00    275428.00 
   10007.230      3035.00    276623.00 
   10010.130      3042.00    276277.00 
   10012.860      3032.00    276030.00 
   10015.990      3054.00    275925.00 
   10018.940      3075.00    276095.00 
   10021.980      3101.00    275941.00 
   10024.900      3113.00    275950.00 
   10027.940      3122.00    275998.00 
   10030.900      3128.00    275919.00 
   10033.950      3135.00    275775.00 
   10036.960      3149.00    275800.00 
   10040.010      3180.00    275913.00 
   10043.110      3228.00    275940.00 
   10046.120      3250.00    275882.00 
   10049.180      3277.00    275737.00 
   10052.330      3291.00    275780.00 
   10055.390      3314.00    275864.00 
   10058.500      3340.00    275703.00 
   10061.600      3335.00    275688.00 
   10064.800      3341.00    275694.00 
   10067.960      3368.00    275634.00 
   10071.120      3376.00    275897.00 
   10074.280      3393.00    275878.00 
   10077.490      3408.00    276023.00 
   10080.700      3438.00    276114.00 
   10083.870      3450.00    276108.00 
   10087.080      3482.00    276198.00 
   10090.300      3490.00    276160.00 
   10093.560      3508.00    276091.00 
   10096.820      3533.00    275992.00 
   10100.090      3535.00    275877.00 
   10103.400      3559.00    275779.00 
   10106.720      3572.00    275512.00 
   10110.040      3609.00    275688.00 
   10113.350      3658.00    275741.00 
   10116.680      3652.00    275735.00 
   10119.960      3662.00    275755.00 
   10123.330      3677.00    275687.00 
   10126.700      3708.00    275631.00 
   10130.160      3720.00    275634.00 
   10133.500      3736.00    275476.00 
   10136.920      3763.00    275453.00 
   10140.300      3788.00    275388.00 
   10143.730      3814.00    275437.00 
   10147.250      3838.00    275497.00 
   10150.640      3859.00    275504.00 
   10154.120      3890.00    275419.00 
   10157.650      3915.00    275642.00 
   10161.180      3942.00    275803.00 
   10164.620      3969.00    275787.00 
   10168.110      3994.00    275772.00 
   10171.650      4020.00    275676.00 
   10175.190      4052.00    275613.00 
   10178.730      4070.00    275764.00 
   10182.370      4094.00    275832.00 
   10185.870      4103.00    275333.00 
   10189.510      4119.00    275835.00 
   10193.060      4134.00    275703.00 
   10196.710      4144.00    275668.00 
   10200.360      4154.00    274518.00 
   10204.010      4181.00    275198.00 
   10207.660      4252.00    276773.00 
