#XDI/1.1  GSE/1.0
# Column.1: energy eV
# Column.2: itrans
# Column.3: i0
# Scan.end_time: 2006-12-17 10:40:09
# Scan.start_time: 2006-12-17 10:21:38
# Element.symbol:  Zn
# Element.edge:  K
# Mono.d_spacing:  3.13555
# Mono.name: Si 111
# Sample.name: smithsonite
# Sample.formula: ZnCO3
# Sample.prep: powder on tape, many layers
# Sample.temperature: room temperature
# Beamline.Name:  13-BM-D
# Beamline.xray_source:  bending magnet
# Beamline.collimation: none
# Beamline.focusing: no
# Beamline.harmonic_rejection: Rh-coated mirror, detuned
# Beamline.Storage_Ring_Current: 99.9631 mA
# Facility.name: APS
# Facility.energy: 7.00 GeV
# Facility.xray_source: APS bending magnet
# Detector.I0: 10 nA/V 10 cm N2
# Detector.I1: 2 nA/V 10 cm Ar (?)
# ScanParameters.E0: 9659.00
# ScanParameters.Legend: Start       Stop       Step       Npts       Time   Kspace?
# ScanParameters.Region1: -200.00    -10.000     5.0000     39.000     2.0000   0
# ScanParameters.Region2: -10.000     25.000    0.25000     141.00     2.0000   0
# ScanParameters.Region3: 2.5616     12.000   0.039993     237.00     2.0000   1
#-------------------------
#  energy  itrans  i0
    9459.017    314783.00    289717.00
    9463.885    310716.00    285336.00
    9468.992    308671.00    282901.00
    9474.024    307768.00    281385.00
    9479.064    307312.00    280382.00
    9483.994    307156.00    279590.00
    9489.005    307154.00    278935.00
    9494.022    307623.00    278784.00
    9499.046    308015.00    278465.00
    9503.995    308620.00    278358.00
    9508.988    309483.00    278502.00
    9513.989    310185.00    278472.00
    9518.993    310972.00    278508.00
    9524.005    311769.00    278515.00
    9529.020    312549.00    278639.00
    9534.001    313293.00    278634.00
    9538.988    313810.00    278458.00
    9544.021    314583.00    278472.00
    9549.019    315261.00    278447.00
    9554.021    316198.00    278666.00
    9558.990    316932.00    278658.00
    9564.006    317391.00    278492.00
    9569.024    318033.00    278390.00
    9574.010    316807.00    276764.00
    9579.000    319229.00    278325.00
    9583.996    321487.00    279646.00
    9588.997    321598.00    279215.00
    9594.004    321938.00    278992.00
    9599.016    322266.00    278738.00
    9603.993    322857.00    278672.00
    9609.016    323265.00    278589.00
    9614.004    323664.00    278489.00
    9618.996    324168.00    278535.00
    9623.995    324449.00    278494.00
    9628.999    325028.00    278748.00
    9634.009    323511.00    277540.00
    9639.023    324969.00    279119.00
    9644.002    323657.00    279011.00
    9649.027    320730.00    278905.00
    9649.269    320989.00    279376.00
    9649.510    321405.00    279874.00
    9649.752    321328.00    280001.00
    9649.993    321385.00    280244.00
    9650.275    321168.00    280294.00
    9650.517    321020.00    280392.00
    9650.797    320730.00    280366.00
    9651.040    320343.00    280325.00
    9651.280    320088.00    280339.00
    9651.521    319798.00    280356.00
    9651.805    319370.00    280327.00
    9652.006    319034.00    280356.00
    9652.246    318582.00    280330.00
    9652.529    318274.00    280368.00
    9652.771    317694.00    280315.00
    9653.051    317344.00    280332.00
    9653.252    316744.00    280278.00
    9653.495    316209.00    280230.00
    9653.776    315598.00    280239.00
    9654.059    315023.00    280188.00
    9654.300    314276.00    280111.00
    9654.501    313671.00    280096.00
    9654.742    312931.00    280081.00
    9655.024    312219.00    280185.00
    9655.266    311392.00    280266.00
    9655.549    310538.00    280264.00
    9655.750    309649.00    280338.00
    9655.991    308768.00    280370.00
    9656.274    307534.00    280352.00
    9656.516    306611.00    280375.00
    9656.797    305356.00    280353.00
    9656.998    304146.00    280372.00
    9657.241    302641.00    280341.00
    9657.522    300805.00    280320.00
    9657.764    299028.00    280394.00
    9658.046    297056.00    280413.00
    9658.248    294827.00    280435.00
    9658.530    292400.00    280468.00
    9658.771    289126.00    280440.00
    9659.054    285980.00    280438.00
    9659.296    282445.00    280459.00
    9659.538    278243.00    280399.00
    9659.779    273469.00    280335.00
    9660.063    266621.00    280267.00
    9660.304    259821.00    280163.00
    9660.545    252325.00    279999.00
    9660.788    243495.00    279789.00
    9660.989    233951.00    279923.00
    9661.271    221185.00    279706.00
    9661.554    209813.00    279792.00
    9661.796    197121.00    279795.00
    9662.037    183892.00    279711.00
    9662.278    170284.00    280003.00
    9662.521    154738.00    280012.00
    9662.804    141427.00    279932.00
    9663.047    129808.00    280071.00
    9663.288    118749.00    280183.00
    9663.530    108812.00    280268.00
    9663.771     97556.00    280362.00
    9664.015     88614.00    280530.00
    9664.257     79365.00    280640.00
    9664.538     70423.00    280613.00
    9664.781     61265.00    280441.00
    9665.023     51072.00    280399.00
    9665.265     43479.00    280349.00
    9665.508     36670.00    280231.00
    9665.790     31366.00    280082.00
    9666.031     27405.00    280107.00
    9666.274     24773.00    280027.00
    9666.517     23791.00    279917.00
    9666.799     23806.00    279821.00
    9667.042     24480.00    279911.00
    9667.283     25594.00    280085.00
    9667.525     27285.00    280127.00
    9667.769     28932.00    280132.00
    9668.011     30839.00    280071.00
    9668.293     32903.00    279889.00
    9668.536     35337.00    280005.00
    9668.818     38326.00    279919.00
    9669.060     41100.00    279531.00
    9669.304     44327.00    279865.00
    9669.545     47600.00    279979.00
    9669.787     51082.00    280062.00
    9669.989     54595.00    280251.00
    9670.272     58803.00    280326.00
    9670.515     62624.00    280416.00
    9670.799     66428.00    280378.00
    9671.040     70482.00    280205.00
    9671.242     74496.00    280263.00
    9671.526     78949.00    280285.00
    9671.769     82636.00    280205.00
    9672.010     85694.00    280178.00
    9672.252     88487.00    280267.00
    9672.536     90707.00    280235.00
    9672.738     92522.00    280256.00
    9673.021     94333.00    280173.00
    9673.304     95610.00    280222.00
    9673.546     96642.00    280153.00
    9673.790     97508.00    280183.00
    9674.032     98081.00    280218.00
    9674.274     98359.00    280126.00
    9674.558     98192.00    280070.00
    9674.760     97533.00    280055.00
    9675.042     96376.00    279981.00
    9675.244     94661.00    279761.00
    9675.528     92100.00    279970.00
    9675.771     89475.00    280157.00
    9676.055     86463.00    280220.00
    9676.297     83180.00    280161.00
    9676.539     79948.00    280286.00
    9676.781     76640.00    280159.00
    9677.065     73298.00    279888.00
    9677.268     70974.00    279866.00
    9677.552     69097.00    279734.00
    9677.794     68001.00    279921.00
    9678.036     67458.00    280004.00
    9678.279     67369.00    280049.00
    9678.522     67931.00    279983.00
    9678.806     68809.00    279933.00
    9679.048     70037.00    279990.00
    9679.292     71526.00    280077.00
    9679.534     73150.00    280129.00
    9679.776     74977.00    280127.00
    9680.021     76473.00    280194.00
    9680.304     77890.00    280247.00
    9680.546     79181.00    280136.00
    9680.748     80489.00    280169.00
    9681.032     81886.00    280112.00
    9681.275     83626.00    280209.00
    9681.520     85315.00    280222.00
    9681.802     87424.00    280778.00
    9682.044     89740.00    280723.00
    9682.288     92184.00    280492.00
    9682.491     94954.00    280300.00
    9682.773     98279.00    280123.00
    9683.059    101312.00    280033.00
    9683.301    104248.00    279936.00
    9683.543    107223.00    279959.00
    9683.788    110196.00    279995.00
    9683.990    112826.00    279874.00
    9684.800    119776.00    279493.00
    9685.610    123824.00    279749.00
    9686.421    126220.00    279538.00
    9687.232    129128.00    279605.00
    9688.084    132712.00    279816.00
    9688.896    135159.00    279844.00
    9689.787    136078.00    279642.00
    9690.640    135576.00    280050.00
    9691.531    133671.00    280026.00
    9692.425    130946.00    280044.00
    9693.278    127367.00    280000.00
    9694.253    122813.00    279815.00
    9695.187    118333.00    279624.00
    9696.079    114356.00    279820.00
    9697.096    110545.00    279780.00
    9698.071    106544.00    279621.00
    9699.047    101927.00    279822.00
    9700.021     97150.00    279993.00
    9701.039     91854.00    279865.00
    9702.056     86918.00    279815.00
    9703.072     82990.00    279668.00
    9704.131     80433.00    279818.00
    9705.189     79584.00    279826.00
    9706.247     79375.00    279679.00
    9707.347     79099.00    279688.00
    9708.404     78298.00    279829.00
    9709.545     76734.00    278960.00
    9710.646     75599.00    278834.00
    9711.787     75397.00    280601.00
    9712.929     75346.00    280271.00
    9714.070     75971.00    280054.00
    9715.212     77268.00    279631.00
    9716.395     79239.00    279702.00
    9717.579     81483.00    279369.00
    9718.763     83839.00    279464.00
    9720.028     85935.00    279260.00
    9721.253     87392.00    279186.00
    9722.478     88210.00    279269.00
    9723.704     88615.00    279125.00
    9725.012     88734.00    279000.00
    9726.237     88909.00    278855.00
    9727.546     89081.00    278430.00
    9728.855     88849.00    275967.00
    9730.124     90583.00    280014.00
    9731.475     91381.00    280921.00
    9732.783     91817.00    280449.00
    9734.176     92620.00    280238.00
    9735.527     93588.00    280028.00
    9736.880     94752.00    279920.00
    9738.231     95908.00    279993.00
    9739.625     97205.00    279959.00
    9740.979     98594.00    280013.00
    9742.496     99815.00    280059.00
    9743.892    100358.00    280020.00
    9745.368    100157.00    279744.00
    9746.806     99717.00    279855.00
    9748.283     98958.00    280164.00
    9749.804     98089.00    280145.00
    9751.242     97484.00    280081.00
    9752.804     97282.00    279846.00
    9754.285     97400.00    280008.00
    9755.807     97373.00    279776.00
    9757.370     97064.00    279601.00
    9758.893     96364.00    279570.00
    9760.457     95373.00    279511.00
    9762.021     94382.00    279350.00
    9763.671     93746.00    279387.00
    9765.277     93519.00    279248.00
    9766.885     93515.00    279179.00
    9768.494     93519.00    279156.00
    9770.103     93257.00    278912.00
    9771.754     92839.00    278845.00
    9773.487     91804.00    277530.00
    9775.098     90105.00    273786.00
    9776.832     92698.00    282384.00
    9778.486     92511.00    281318.00
    9780.223     92559.00    280413.00
    9781.959     92673.00    279872.00
    9783.654     92640.00    279706.00
    9785.477     92129.00    278680.00
    9787.174     92488.00    279940.00
    9788.995     92438.00    279844.00
    9790.776     92356.00    279651.00
    9792.561     92192.00    279488.00
    9794.384     92075.00    279521.00
    9796.167     91856.00    279522.00
    9797.994     91736.00    279577.00
    9799.901     91826.00    279192.00
    9801.771     92260.00    278790.00
    9803.641     93552.00    279606.00
    9805.469     94855.00    279699.00
    9807.382     96189.00    279667.00
    9809.295     97372.00    279482.00
    9811.209     98316.00    279439.00
    9813.124     98998.00    279543.00
    9815.122     99444.00    279523.00
    9817.039     99670.00    279428.00
    9819.039     99814.00    279501.00
    9820.957     99629.00    279377.00
    9822.958     99262.00    279484.00
    9824.963     98421.00    279279.00
    9827.007     97553.00    279431.00
    9829.011     96559.00    278263.00
    9831.060     96830.00    279714.00
    9833.106     97036.00    279484.00
    9835.197     97522.00    279215.00
    9837.248     98087.00    279300.00
    9839.340     98452.00    279103.00
    9841.476     98650.00    279057.00
    9843.570     98805.00    279092.00
    9845.707     98897.00    278757.00
    9847.846     98310.00    276057.00
    9849.984     99565.00    278636.00
    9852.208    100833.00    281239.00
    9854.181    100676.00    280398.00
    9856.575    100630.00    279969.00
    9858.761    100647.00    279878.00
    9860.947    100515.00    279644.00
    9863.176    100412.00    279384.00
    9865.405    100224.00    279212.00
    9867.637    100038.00    279212.00
    9869.954     99875.00    279260.00
    9872.397     99786.00    279174.00
    9874.505     99956.00    279311.00
    9876.825    100011.00    279111.00
    9879.062     99816.00    278229.00
    9881.384    100399.00    279675.00
    9883.749    100255.00    279459.00
    9886.115    100100.00    279624.00
    9888.440     99827.00    279436.00
    9890.810     99770.00    279312.00
    9893.221     99724.00    278524.00
    9895.634    100449.00    279577.00
    9898.049    100841.00    279484.00
    9900.464    101286.00    279441.00
    9902.882    101834.00    279325.00
    9905.300    102519.00    279309.00
    9907.761    103386.00    279495.00
    9910.225    104063.00    279189.00
    9912.688    104698.00    279275.00
    9915.239    105084.00    279218.00
    9917.750    105319.00    279139.00
    9920.260    104941.00    277864.00
    9922.814    105726.00    279732.00
    9925.286    105583.00    279322.00
    9927.842    105682.00    279265.00
    9930.400    105628.00    279013.00
    9932.961    105687.00    278949.00
    9935.564    105854.00    279001.00
    9938.214    106094.00    278984.00
    9940.820    106337.00    278945.00
    9943.514    106429.00    278859.00
    9946.038    106504.00    278960.00
    9948.734    106529.00    278974.00
    9951.391    106571.00    278990.00
    9954.047    106542.00    278873.00
    9956.747    106578.00    278882.00
    9959.278    106630.00    278881.00
    9962.153    106800.00    278937.00
    9964.860    106977.00    278984.00
    9967.653    107270.00    278984.00
    9970.405    107647.00    279119.00
    9973.157    108082.00    278940.00
    9975.912    108557.00    278655.00
    9978.712    109215.00    278949.00
    9981.470    109557.00    278733.00
    9984.272    108324.00    274927.00
    9987.120    110914.00    281144.00
    9989.926    110582.00    280278.00
    9992.776    110383.00    279769.00
    9995.628    110222.00    279134.00
    9998.524    110275.00    278973.00
   10001.380    110115.00    278303.00
   10004.330    110263.00    278253.00
   10007.230    110890.00    279533.00
   10009.960    111011.00    279378.00
   10013.080    111108.00    279203.00
   10015.990    111290.00    279149.00
   10018.940    111613.00    279223.00
   10021.980    111983.00    279214.00
   10024.900    112440.00    279240.00
   10027.940    112686.00    278966.00
   10030.990    113057.00    278883.00
   10033.950    113491.00    279074.00
   10037.000    113849.00    279051.00
   10040.050    114152.00    279062.00
   10043.110    114490.00    279041.00
   10046.120    114628.00    278998.00
   10049.180    114751.00    278889.00
   10052.280    114949.00    278921.00
   10055.430    115229.00    278790.00
   10058.500    115518.00    278723.00
   10061.600    115806.00    278675.00
   10064.800    116092.00    278642.00
   10067.960    116261.00    278423.00
   10071.120    116546.00    278611.00
   10074.280    116695.00    278520.00
   10077.450    116871.00    278498.00
   10080.700    117126.00    278603.00
   10083.870    117316.00    278529.00
   10087.080    117524.00    278478.00
   10090.300    117791.00    278534.00
   10093.560    118084.00    278533.00
   10096.820    118347.00    278693.00
   10100.090    118701.00    278793.00
   10103.400    118998.00    278811.00
   10106.720    119135.00    278507.00
   10110.040    119694.00    278961.00
   10113.350    119908.00    278891.00
   10116.680    120193.00    278915.00
   10119.960    120432.00    278873.00
   10123.370    120598.00    278802.00
   10126.740    120791.00    278807.00
   10130.160    120942.00    278731.00
   10133.500    121124.00    278696.00
   10136.960    121437.00    278696.00
   10140.300    121657.00    278569.00
   10143.730    121904.00    278425.00
   10147.210    122217.00    278345.00
   10150.640    122544.00    278373.00
   10154.120    122890.00    278341.00
   10157.650    123214.00    278266.00
   10161.130    123490.00    278354.00
   10164.620    123789.00    278289.00
   10168.110    124125.00    278264.00
   10171.650    124372.00    278189.00
   10175.190    124777.00    278331.00
   10178.730    125100.00    278322.00
   10182.370    125463.00    278343.00
   10185.870    125648.00    278119.00
   10189.510    126252.00    278788.00
   10193.060    126523.00    278738.00
   10196.710    126748.00    278754.00
   10200.310    126680.00    277821.00
   10203.960    127152.00    278269.00
   10207.620    128481.00    280337.00
