#XDI/1.1  GSE/1.0
# Column.1: energy eV
# Column.2: itrans
# Column.3: i0
# Scan.end_time: 2006-12-17 08:58:21
# Scan.start_time: 2006-12-17 08:39:50
# Element.symbol:  Zn
# Element.edge:  K
# Mono.d_spacing:  3.13555
# Mono.name: Si 111
# Sample.name: zinc sulfate
# Sample.formula: ZnSO4
# Sample.prep: powder on tape, many layers
# Sample.temperature: room temperature
# Beamline.Name:  13-BM-D
# Beamline.xray_source:  bending magnet
# Beamline.collimation: none
# Beamline.focusing: no
# Beamline.harmonic_rejection: Rh-coated mirror, detuned
# Beamline.Storage_Ring_Current: 101.342 mA
# Facility.name: APS
# Facility.energy: 7.00 GeV
# Facility.xray_source: APS bending magnet
# Detector.I0: 10 nA/V 10 cm N2
# Detector.I1: 2 nA/V 10 cm Ar (?)
# ScanParameters.E0: 9659.00
# ScanParameters.Legend: Start       Stop       Step       Npts       Time   Kspace?
# ScanParameters.Region1: -200.00    -10.000     5.0000     39.000     2.0000   0
# ScanParameters.Region2: -10.000     25.000    0.25000     141.00     2.0000   0
# ScanParameters.Region3: 2.5616     12.000   0.039993     237.00     2.0000   1
#-------------------------
#  energy  itrans  i0
    9459.017    107316.00    286781.00
    9464.040    107084.00    285186.00
    9468.992    106924.00    283711.00
    9473.986    107172.00    283475.00
    9479.026    107414.00    283182.00
    9483.994    107572.00    282700.00
    9489.005    107906.00    282606.00
    9494.022    108200.00    282316.00
    9499.006    108520.00    282258.00
    9503.995    108803.00    282054.00
    9508.988    109254.00    282224.00
    9513.989    109624.00    282201.00
    9518.993    110020.00    282251.00
    9524.005    110403.00    282309.00
    9529.020    110786.00    282362.00
    9534.001    111076.00    282348.00
    9538.988    111361.00    282123.00
    9544.021    111789.00    282278.00
    9549.019    112209.00    282418.00
    9554.021    112615.00    282587.00
    9558.990    112891.00    282440.00
    9563.965    113182.00    282370.00
    9569.024    113460.00    282215.00
    9574.010    112511.00    280305.00
    9579.000    114231.00    282620.00
    9583.996    114961.00    283468.00
    9588.997    115173.00    283203.00
    9594.004    115372.00    282998.00
    9599.016    115605.00    282770.00
    9603.993    115801.00    282737.00
    9609.016    115966.00    282490.00
    9614.004    116240.00    282397.00
    9618.996    116506.00    282420.00
    9623.995    116648.00    282333.00
    9628.999    116755.00    282237.00
    9634.009    116260.00    281257.00
    9639.023    116737.00    282609.00
    9644.002    116181.00    282537.00
    9649.027    114919.00    282555.00
    9649.269    114804.00    282550.00
    9649.510    114933.00    283218.00
    9649.752    114992.00    283589.00
    9649.993    114909.00    283689.00
    9650.315    114892.00    284002.00
    9650.557    114801.00    284081.00
    9650.797    114637.00    284097.00
    9651.040    114521.00    283977.00
    9651.241    114296.00    283800.00
    9651.562    114126.00    283908.00
    9651.805    114065.00    283989.00
    9652.006    113791.00    283793.00
    9652.246    113628.00    283756.00
    9652.529    113580.00    284089.00
    9652.771    113327.00    284132.00
    9653.011    113153.00    284188.00
    9653.294    112940.00    284247.00
    9653.535    112725.00    284232.00
    9653.776    112412.00    284283.00
    9654.059    112167.00    284273.00
    9654.260    111873.00    284196.00
    9654.541    111636.00    284250.00
    9654.742    111265.00    284241.00
    9655.024    110889.00    284283.00
    9655.266    110509.00    284295.00
    9655.507    110116.00    284359.00
    9655.790    109766.00    284397.00
    9656.031    109342.00    284392.00
    9656.274    108719.00    284217.00
    9656.556    108246.00    284197.00
    9656.757    107768.00    284197.00
    9657.039    107153.00    284163.00
    9657.241    106530.00    284158.00
    9657.522    105690.00    284085.00
    9657.805    104860.00    284019.00
    9658.006    103964.00    283934.00
    9658.287    103049.00    283786.00
    9658.530    102001.00    283889.00
    9658.812    100750.00    284021.00
    9659.054     99454.00    284121.00
    9659.296     97998.00    284062.00
    9659.498     96329.00    284022.00
    9659.739     94428.00    283874.00
    9660.021     91666.00    283747.00
    9660.304     89074.00    283806.00
    9660.545     86265.00    283957.00
    9660.788     83175.00    283877.00
    9660.989     79890.00    283715.00
    9661.271     75974.00    283850.00
    9661.554     72275.00    284073.00
    9661.796     68473.00    284142.00
    9662.037     64128.00    284126.00
    9662.238     59143.00    284186.00
    9662.521     52752.00    284197.00
    9662.804     46629.00    284187.00
    9663.047     40509.00    284145.00
    9663.288     34670.00    284249.00
    9663.530     29139.00    284257.00
    9663.771     23994.00    284315.00
    9664.055     20300.00    284440.00
    9664.297     17371.00    284355.00
    9664.538     15073.00    284219.00
    9664.781     13172.00    284095.00
    9665.023     11506.00    284036.00
    9665.265     10493.00    283879.00
    9665.548      9726.00    283687.00
    9665.790      9178.00    283586.00
    9665.991      8826.00    283791.00
    9666.274      8485.00    283577.00
    9666.557      8250.00    283702.00
    9666.759      8036.00    283742.00
    9667.002      7844.00    283695.00
    9667.283      7618.00    283748.00
    9667.525      7376.00    283995.00
    9667.809      7178.00    283827.00
    9668.051      7040.00    284336.00
    9668.253      6950.00    284214.00
    9668.536      6950.00    284192.00
    9668.778      7071.00    284014.00
    9669.020      7370.00    284255.00
    9669.264      7772.00    283962.00
    9669.505      8290.00    284093.00
    9669.747      8923.00    284049.00
    9670.031      9657.00    284016.00
    9670.272     10609.00    284022.00
    9670.555     11479.00    283987.00
    9670.757     12401.00    283771.00
    9671.040     13316.00    283564.00
    9671.242     14307.00    283761.00
    9671.526     15372.00    283824.00
    9671.809     16204.00    283908.00
    9672.050     17014.00    283831.00
    9672.294     17749.00    283952.00
    9672.536     18458.00    283953.00
    9672.778     19199.00    284102.00
    9673.021     20016.00    284222.00
    9673.264     20719.00    284450.00
    9673.506     21364.00    284411.00
    9673.790     21994.00    284225.00
    9673.992     22578.00    284424.00
    9674.274     23167.00    284607.00
    9674.517     23592.00    284335.00
    9674.800     23943.00    284262.00
    9675.002     24231.00    284270.00
    9675.285     24451.00    284253.00
    9675.568     24597.00    284131.00
    9675.771     24700.00    284028.00
    9676.055     24751.00    283880.00
    9676.297     24740.00    283638.00
    9676.539     24774.00    283669.00
    9676.781     24831.00    283717.00
    9677.025     24849.00    283419.00
    9677.308     24928.00    283570.00
    9677.552     24980.00    283369.00
    9677.794     25079.00    283443.00
    9678.036     25149.00    283225.00
    9678.279     25263.00    283489.00
    9678.522     25408.00    283456.00
    9678.806     25461.00    283288.00
    9679.048     25582.00    283656.00
    9679.292     25678.00    283619.00
    9679.534     25759.00    283866.00
    9679.818     25865.00    283963.00
    9680.021     25945.00    284022.00
    9680.304     26020.00    283972.00
    9680.546     26119.00    284013.00
    9680.790     26194.00    284035.00
    9681.032     26282.00    284020.00
    9681.275     26390.00    284093.00
    9681.560     26489.00    284132.00
    9681.802     26593.00    284163.00
    9682.044     26706.00    284202.00
    9682.288     26858.00    284285.00
    9682.531     26958.00    284249.00
    9682.773     27138.00    284123.00
    9683.059     27268.00    284119.00
    9683.301     27403.00    284062.00
    9683.543     27567.00    284104.00
    9683.746     27750.00    284067.00
    9683.990     27941.00    284143.00
    9684.800     28693.00    283915.00
    9685.610     29496.00    283804.00
    9686.421     30335.00    283640.00
    9687.232     31173.00    283830.00
    9688.084     31925.00    283690.00
    9688.854     32500.00    283424.00
    9689.787     33102.00    283437.00
    9690.640     33561.00    283215.00
    9691.573     33986.00    283366.00
    9692.425     34174.00    283170.00
    9693.318     34205.00    283405.00
    9694.253     33883.00    283313.00
    9695.187     33258.00    283415.00
    9696.121     32274.00    283255.00
    9697.096     31125.00    283525.00
    9698.071     29680.00    283446.00
    9699.047     28160.00    283571.00
    9700.021     26728.00    283548.00
    9701.039     25242.00    283335.00
    9702.056     24035.00    283582.00
    9703.072     23017.00    283380.00
    9704.131     22174.00    283348.00
    9705.189     21592.00    283344.00
    9706.247     21139.00    283414.00
    9707.347     20838.00    283415.00
    9708.446     20668.00    283303.00
    9709.545     20588.00    282390.00
    9710.646     20700.00    282890.00
    9711.787     20975.00    284704.00
    9712.929     21080.00    284562.00
    9714.070     21168.00    284228.00
    9715.212     21208.00    284147.00
    9716.395     21245.00    284138.00
    9717.537     21235.00    284266.00
    9718.803     21160.00    284084.00
    9719.986     21123.00    283942.00
    9721.212     21166.00    283915.00
    9722.478     21317.00    283835.00
    9723.704     21600.00    283828.00
    9724.970     21959.00    283638.00
    9726.237     22400.00    283267.00
    9727.546     22839.00    282632.00
    9728.814     23170.00    280217.00
    9730.124     23982.00    284787.00
    9731.475     24411.00    284827.00
    9732.825     24797.00    284310.00
    9734.176     25183.00    283883.00
    9735.527     25515.00    283631.00
    9736.880     25834.00    283330.00
    9738.231     26096.00    283330.00
    9739.625     26318.00    283263.00
    9741.061     26496.00    283341.00
    9742.291     26607.00    283151.00
    9743.892     26711.00    283097.00
    9745.368     26711.00    282867.00
    9746.806     26669.00    282928.00
    9748.283     26607.00    283260.00
    9749.804     26466.00    283122.00
    9751.242     26329.00    283150.00
    9752.804     26203.00    283214.00
    9754.244     26053.00    283116.00
    9755.807     25936.00    283307.00
    9757.370     25807.00    283270.00
    9758.893     25724.00    283447.00
    9760.292     25616.00    283411.00
    9762.021     25540.00    283374.00
    9763.628     25505.00    283550.00
    9765.277     25456.00    283593.00
    9766.885     25356.00    283335.00
    9768.494     25270.00    283516.00
    9770.103     25181.00    283417.00
    9771.754     25032.00    283152.00
    9773.487     24752.00    281705.00
    9775.098     24522.00    278487.00
    9776.832     25113.00    287326.00
    9778.527     24841.00    285761.00
    9780.223     24699.00    284828.00
    9781.959     24607.00    284215.00
    9783.654     24563.00    283731.00
    9785.477     24470.00    282509.00
    9787.174     24598.00    283955.00
    9788.995     24616.00    283705.00
    9790.776     24640.00    283493.00
    9792.561     24701.00    283494.00
    9794.384     24802.00    283539.00
    9796.167     24876.00    283346.00
    9797.994     24962.00    283367.00
    9799.901     25047.00    282957.00
    9801.771     25171.00    282800.00
    9803.641     25396.00    283473.00
    9805.510     25525.00    283563.00
    9807.382     25690.00    283604.00
    9809.295     25849.00    283567.00
    9811.209     25959.00    283282.00
    9813.124     26113.00    283527.00
    9815.122     26219.00    283442.00
    9817.039     26315.00    283322.00
    9819.039     26413.00    283364.00
    9820.957     26468.00    283298.00
    9822.958     26552.00    283222.00
    9824.963     26634.00    283024.00
    9827.007     26743.00    283221.00
    9829.011     26702.00    281789.00
    9831.101     26938.00    283442.00
    9833.106     26961.00    283155.00
    9835.197     27018.00    282994.00
    9837.290     27030.00    283027.00
    9839.383     27026.00    282996.00
    9841.476     27033.00    282868.00
    9843.611     27031.00    282893.00
    9845.707     27000.00    282591.00
    9847.846     26710.00    279316.00
    9849.984     27172.00    283223.00
    9852.208     27324.00    285039.00
    9854.391     27247.00    284097.00
    9856.575     27215.00    283691.00
    9858.761     27178.00    283486.00
    9860.947     27149.00    283179.00
    9863.176     27165.00    283170.00
    9865.405     27127.00    282947.00
    9867.637     27145.00    283096.00
    9869.995     27143.00    283072.00
    9872.187     27192.00    283098.00
    9874.505     27230.00    283210.00
    9876.782     27254.00    282997.00
    9879.103     27257.00    282272.00
    9881.425     27457.00    283623.00
    9883.749     27528.00    283486.00
    9886.073     27560.00    283134.00
    9888.440     27666.00    283359.00
    9890.852     27730.00    283176.00
    9893.179     27778.00    282382.00
    9895.634     27959.00    283551.00
    9898.049     28032.00    283523.00
    9900.464     28086.00    283387.00
    9902.882     28175.00    283175.00
    9905.512     28295.00    283296.00
    9907.761     28364.00    283149.00
    9910.225     28465.00    283037.00
    9912.688     28516.00    282869.00
    9915.239     28622.00    282945.00
    9917.750     28667.00    282802.00
    9920.260     28644.00    281490.00
    9922.771     28899.00    283327.00
    9925.286     28948.00    282998.00
    9927.842     29012.00    282826.00
    9930.400     29117.00    282741.00
    9932.961     29170.00    282633.00
    9935.564     29272.00    282679.00
    9938.214     29351.00    282556.00
    9940.776     29473.00    282628.00
    9943.429     29547.00    282619.00
    9946.038     29624.00    282731.00
    9948.691     29714.00    282792.00
    9951.177     29792.00    282884.00
    9954.089     29865.00    282846.00
    9956.747     29963.00    283037.00
    9959.450     30018.00    283067.00
    9962.153     30106.00    283298.00
    9964.860     30176.00    283296.00
    9967.653     30231.00    283375.00
    9970.405     30278.00    283364.00
    9973.157     30346.00    283304.00
    9975.912     30344.00    283009.00
    9978.712     30405.00    283065.00
    9981.470     30455.00    282743.00
    9984.272     30132.00    279014.00
    9987.120     30833.00    284971.00
    9989.926     30785.00    284122.00
    9992.776     30795.00    283670.00
    9995.628     30798.00    283246.00
    9998.524     30857.00    282981.00
   10001.380     30889.00    282371.00
   10004.330     30946.00    282165.00
   10007.230     31192.00    283532.00
   10010.130     31212.00    283046.00
   10013.040     31313.00    282869.00
   10015.990     31405.00    282849.00
   10018.940     31489.00    282731.00
   10021.980     31602.00    282686.00
   10024.900     31699.00    282619.00
   10027.940     31787.00    282688.00
   10030.900     31912.00    282579.00
   10033.950     31992.00    282471.00
   10036.960     32120.00    282603.00
   10040.010     32248.00    282640.00
   10042.890     32322.00    282574.00
   10046.160     32421.00    282533.00
   10049.180     32550.00    282604.00
   10052.280     32649.00    282692.00
   10055.390     32750.00    282649.00
   10058.500     32844.00    282620.00
   10061.600     32940.00    282652.00
   10064.800     33050.00    282794.00
   10067.960     33111.00    282489.00
   10071.120     33239.00    282751.00
   10074.280     33321.00    282747.00
   10077.490     33424.00    282879.00
   10080.660     33518.00    282813.00
   10083.870     33594.00    282837.00
   10087.130     33682.00    282894.00
   10090.300     33781.00    282859.00
   10093.600     33866.00    282731.00
   10096.870     33942.00    282701.00
   10100.130     34033.00    282672.00
   10103.400     34114.00    282568.00
   10106.720     34179.00    282379.00
   10110.040     34319.00    282687.00
   10113.350     34391.00    282651.00
   10116.630     34523.00    282629.00
   10119.960     34607.00    282489.00
   10123.370     34714.00    282627.00
   10126.740     34822.00    282582.00
   10130.160     34894.00    282445.00
   10133.500     34975.00    282434.00
   10136.960     35086.00    282526.00
   10140.350     35170.00    282456.00
   10143.780     35271.00    282441.00
   10147.250     35374.00    282513.00
   10150.860     35498.00    282608.00
   10154.170     35624.00    282755.00
   10157.650     35701.00    282738.00
   10161.130     35830.00    282865.00
   10164.620     35923.00    282821.00
   10168.160     36044.00    282838.00
   10171.650     36162.00    282889.00
   10175.190     36253.00    282740.00
   10178.730     36371.00    282798.00
   10182.320     36471.00    282693.00
   10185.870     36536.00    282153.00
   10189.510     36705.00    282778.00
   10193.060     36825.00    282722.00
   10196.710     36861.00    282290.00
   10200.360     36844.00    281034.00
   10204.010     36984.00    282697.00
   10207.660     37338.00    283555.00
