#XDI/1.1  GSE/1.0
# Column.1: energy eV
# Column.2: itrans
# Column.3: i0
# Scan.end_time: 2006-12-17 11:19:10
# Scan.start_time: 2006-12-17 11:00:38
# Element.symbol:  Zn
# Element.edge:  K
# Facility.Name:  APS
# Beamline.Name:  13-BM-D
# Beamline.xray_source:  bending magnet
# Mono.d_spacing:  3.13555
# Mono.name: Si 111
# Beamline.Storage_Ring_Current: 99.443 || S:SRcurrentAI.VAL
# Beamline.FOE_Mono_angle_readback: 12.0648 || 13BMA:m17.RBV
# Beamline.Mono_Energy_drive_val: 9459.0000 || 13BMA:E:Energy.VAL
# Beamline.Mono_Energy_readback: 9453.9983 || 13BMA:E:E_RBV
# Beamline.Mono_Beam_Offset: 21.0000 || 13BMA:E:height.VAL
# Beamline.I0_sensitivity_value: 10 || 13BMD:A3sens_num.VAL
# Beamline.I0_sensitivity_value: nA/V || 13BMD:A3sens_unit.VAL
# Beamline.I1_sensitivity_value: 2 || 13BMD:A2sens_num.VAL
# Beamline.I1_sensitivity_value: nA/V || 13BMD:A2sens_unit.VAL
# Beamline.FOE_Mono_Yout: 11.0387 || 13BMA:m10.VAL
# Beamline.FOE_Mono_Yin: 11.2521 || 13BMA:m11.VAL
# Beamline.FOE_Mono_Yup: 10.2891 || 13BMA:m12.VAL
# Beamline.FOE_Mono_Cage_Y: 0.000 || 13BMA:m13.VAL
# Beamline.FOE_Mono_Z: 52.577 || 13BMA:m14.VAL
# Beamline.FOE_Mono_angle: 12.0648 || 13BMA:m17.VAL
# Beamline.BMD_Horiz_Width: 6.000 || 13BMD:BMDHt2.C
# Beamline.BMD_Horiz_Center: 1.000 || 13BMD:BMDHt2.D
# Beamline.BMD_Vertical_Width: 1.000 || 13BMD:BMDVt2.C
# Beamline.BMD_Vertical_Center: -10.900 || 13BMD:BMDVt2.D
# Beamline.Sample_X: 44.259 || 13BMD:m70.VAL
# Beamline.Sample_Z__focus: 0.000 || 13BMD:m33.VAL
# Beamline.Sample_Y__height: 28.099 || 13BMD:m34.VAL
# Beamline.CCD_Z: 87.500 || 13BMD:m35.VAL
# Beamline.Hori__slit_X: 25.000 || 13BMD:m27.VAL
# Beamline.V_Bottom: 0.000 || 13BMD:m28.VAL
# Beamline.Hw_UpStream: 1000 || 13BMD:m78.VAL
# Beamline.Vp_UpStream: 944 || 13BMD:m79.VAL
# Beamline.Vw_UpStream: -165400 || 13BMD:m80.VAL
# ScanParameters.Start: Scan.Member: Value
# ScanParameters.E0: 9659.00
# ScanParameters.Legend: Start       Stop       Step       Npts       Time   Kspace?
# ScanParameters.Region1: -200.00    -10.000     5.0000     39.000     2.0000   0
# ScanParameters.Region2: -10.000     25.000    0.25000     141.00     2.0000   0
# ScanParameters.Region3: 2.5616     12.000   0.039993     237.00     2.0000   1
# ScanParameters.End: here
#-------------------------
#  energy  itrans  i0
    9459.017    191270.00    288950.00 
    9463.925    188785.00    284129.00 
    9468.799    187782.00    281721.00 
    9473.986    187194.00    280406.00 
    9479.026    187038.00    279210.00 
    9483.994    187016.00    278413.00 
    9489.005    187358.00    278064.00 
    9494.022    187625.00    277702.00 
    9499.006    188033.00    277424.00 
    9503.995    188658.00    277375.00 
    9508.988    189172.00    277314.00 
    9513.989    189736.00    277382.00 
    9518.993    190337.00    277401.00 
    9524.005    190725.00    277218.00 
    9529.020    191232.00    277175.00 
    9534.001    191763.00    277127.00 
    9538.988    192278.00    277032.00 
    9544.021    192642.00    276852.00 
    9549.019    193175.00    276932.00 
    9554.021    193850.00    276943.00 
    9558.990    194229.00    276883.00 
    9564.006    194861.00    276928.00 
    9569.024    195311.00    276805.00 
    9574.010    194816.00    275278.00 
    9579.000    196257.00    276663.00 
    9583.996    197643.00    277906.00 
    9588.997    197881.00    277596.00 
    9594.004    198277.00    277463.00 
    9599.016    198588.00    277330.00 
    9603.993    199052.00    277449.00 
    9609.016    199339.00    277306.00 
    9614.004    199778.00    277396.00 
    9618.996    200038.00    277338.00 
    9623.995    200048.00    277275.00 
    9628.999    200071.00    277305.00 
    9634.009    199011.00    276159.00 
    9639.023    199189.00    277582.00 
    9644.002    197522.00    277422.00 
    9649.027    193775.00    277352.00 
    9649.269    193611.00    277698.00 
    9649.510    193631.00    278035.00 
    9649.752    193567.00    278373.00 
    9649.993    193259.00    278405.00 
    9650.275    193073.00    278660.00 
    9650.517    192854.00    278828.00 
    9650.797    192517.00    278841.00 
    9651.040    192157.00    278877.00 
    9651.241    191800.00    278847.00 
    9651.521    191238.00    278827.00 
    9651.765    190697.00    278716.00 
    9652.006    190230.00    278655.00 
    9652.246    189609.00    278581.00 
    9652.529    189155.00    278727.00 
    9652.810    188458.00    278867.00 
    9653.051    187882.00    278899.00 
    9653.252    187182.00    278882.00 
    9653.535    186415.00    278843.00 
    9653.776    185625.00    278952.00 
    9654.059    184811.00    278968.00 
    9654.260    183946.00    278915.00 
    9654.501    182958.00    278840.00 
    9654.742    181865.00    278861.00 
    9655.064    180516.00    278875.00 
    9655.266    179244.00    278870.00 
    9655.549    177871.00    278826.00 
    9655.750    176333.00    278840.00 
    9656.031    174800.00    278830.00 
    9656.274    172870.00    278872.00 
    9656.516    171104.00    278816.00 
    9656.757    168948.00    278688.00 
    9656.998    166776.00    278605.00 
    9657.241    164249.00    278473.00 
    9657.522    161010.00    278648.00 
    9657.805    157710.00    278715.00 
    9658.046    153986.00    278788.00 
    9658.248    149582.00    278748.00 
    9658.530    144784.00    278677.00 
    9658.771    138243.00    278586.00 
    9659.054    132002.00    278264.00 
    9659.296    125119.00    278747.00 
    9659.538    116797.00    278854.00 
    9659.739    107455.00    278535.00 
    9660.063     94951.00    278320.00 
    9660.304     83276.00    278511.00 
    9660.545     71358.00    278610.00 
    9660.788     59224.00    278489.00 
    9660.989     47869.00    278381.00 
    9661.271     36662.00    278440.00 
    9661.554     29477.00    278480.00 
    9661.796     23933.00    278524.00 
    9662.037     20177.00    278708.00 
    9662.278     17701.00    278852.00 
    9662.521     15966.00    278815.00 
    9662.804     14989.00    278843.00 
    9663.047     14166.00    278763.00 
    9663.288     13313.00    278885.00 
    9663.530     12422.00    278765.00 
    9663.771     11405.00    278799.00 
    9664.015     10685.00    278805.00 
    9664.297     10144.00    278818.00 
    9664.538      9829.00    278771.00 
    9664.781      9841.00    278733.00 
    9665.023     10245.00    278701.00 
    9665.265     10919.00    278548.00 
    9665.508     11965.00    278264.00 
    9665.790     13303.00    278315.00 
    9666.031     14921.00    277970.00 
    9666.274     16901.00    278108.00 
    9666.517     18531.00    278046.00 
    9666.799     20024.00    278093.00 
    9667.042     21243.00    278168.00 
    9667.283     22180.00    278015.00 
    9667.525     22830.00    278309.00 
    9667.769     23007.00    278034.00 
    9668.051     22925.00    278196.00 
    9668.293     22542.00    278137.00 
    9668.536     22025.00    278506.00 
    9668.778     21398.00    278664.00 
    9669.060     21005.00    278641.00 
    9669.264     20784.00    278645.00 
    9669.545     20819.00    278749.00 
    9669.747     21074.00    279245.00 
    9669.989     21371.00    279080.00 
    9670.272     21768.00    279094.00 
    9670.555     21998.00    279341.00 
    9670.757     22010.00    279160.00 
    9671.040     21879.00    279364.00 
    9671.242     21561.00    279194.00 
    9671.526     21090.00    279098.00 
    9671.769     20631.00    279312.00 
    9672.010     20230.00    279082.00 
    9672.252     19822.00    278897.00 
    9672.536     19502.00    278871.00 
    9672.738     19264.00    278797.00 
    9673.021     19039.00    278606.00 
    9673.304     18941.00    278552.00 
    9673.506     18912.00    278540.00 
    9673.790     18947.00    278433.00 
    9674.032     19012.00    278151.00 
    9674.274     19156.00    278148.00 
    9674.558     19309.00    277931.00 
    9674.760     19462.00    277880.00 
    9675.042     19634.00    277928.00 
    9675.244     19774.00    277866.00 
    9675.528     19887.00    277774.00 
    9675.771     19982.00    277815.00 
    9676.055     20049.00    278129.00 
    9676.297     20071.00    278009.00 
    9676.539     20105.00    278428.00 
    9676.781     20092.00    278360.00 
    9677.025     20095.00    278221.00 
    9677.268     20178.00    278516.00 
    9677.552     20260.00    278636.00 
    9677.794     20371.00    278732.00 
    9678.036     20575.00    278725.00 
    9678.279     20770.00    278737.00 
    9678.522     21082.00    278773.00 
    9678.806     21338.00    278806.00 
    9679.048     21657.00    278833.00 
    9679.292     22044.00    278967.00 
    9679.534     22452.00    279139.00 
    9679.776     22859.00    279109.00 
    9680.021     23193.00    279156.00 
    9680.304     23497.00    279310.00 
    9680.546     23728.00    279024.00 
    9680.748     23926.00    279109.00 
    9681.032     24113.00    279135.00 
    9681.275     24282.00    278992.00 
    9681.520     24364.00    278788.00 
    9681.762     24396.00    278682.00 
    9682.044     24382.00    278650.00 
    9682.288     24348.00    278671.00 
    9682.491     24287.00    278557.00 
    9682.773     24187.00    278519.00 
    9683.017     24022.00    278297.00 
    9683.301     23871.00    278235.00 
    9683.543     23733.00    278348.00 
    9683.788     23527.00    278136.00 
    9683.990     23362.00    278338.00 
    9684.800     22815.00    278427.00 
    9685.610     22321.00    278409.00 
    9686.421     21860.00    278315.00 
    9687.232     21444.00    278501.00 
    9688.084     21225.00    278721.00 
    9688.896     21245.00    278972.00 
    9689.787     21637.00    279083.00 
    9690.640     22309.00    278994.00 
    9691.531     23306.00    278826.00 
    9692.425     24522.00    278695.00 
    9693.318     25729.00    278728.00 
    9694.253     26603.00    278583.00 
    9695.187     27074.00    278637.00 
    9696.121     27346.00    278654.00 
    9697.096     27643.00    278621.00 
    9698.071     27984.00    278591.00 
    9699.047     28198.00    278395.00 
    9700.021     28159.00    278165.00 
    9701.039     27969.00    278276.00 
    9702.056     27664.00    278230.00 
    9703.072     27210.00    278091.00 
    9704.131     26543.00    278239.00 
    9705.189     25737.00    278028.00 
    9706.247     24820.00    278133.00 
    9707.347     23786.00    277949.00 
    9708.404     23009.00    277875.00 
    9709.545     22459.00    276927.00 
    9710.646     22390.00    277114.00 
    9711.787     22612.00    278905.00 
    9712.929     22681.00    278602.00 
    9714.070     22712.00    278576.00 
    9715.212     22605.00    278553.00 
    9716.354     22284.00    278289.00 
    9717.579     21745.00    278110.00 
    9718.803     21124.00    278322.00 
    9720.028     20508.00    278340.00 
    9721.253     20000.00    278187.00 
    9722.478     19678.00    278254.00 
    9723.704     19480.00    278389.00 
    9724.930     19375.00    278309.00 
    9726.237     19359.00    277994.00 
    9727.546     19442.00    277463.00 
    9728.814     19599.00    275101.00 
    9730.165     20377.00    279287.00 
    9731.475     20959.00    279931.00 
    9732.783     21378.00    279131.00 
    9734.176     21848.00    278638.00 
    9735.527     22306.00    278513.00 
    9736.880     22778.00    278352.00 
    9738.231     23190.00    278207.00 
    9739.625     23528.00    278107.00 
    9741.021     23820.00    278221.00 
    9742.496     24103.00    278084.00 
    9743.933     24468.00    278056.00 
    9745.368     24841.00    277800.00 
    9746.806     25262.00    278090.00 
    9748.078     25541.00    278267.00 
    9749.763     25729.00    278146.00 
    9751.242     25730.00    278266.00 
    9752.804     25556.00    278128.00 
    9754.244     25413.00    278217.00 
    9755.807     25189.00    278239.00 
    9757.535     25004.00    278416.00 
    9758.934     24938.00    278199.00 
    9760.416     25029.00    278119.00 
    9762.021     25275.00    278241.00 
    9763.671     25504.00    278149.00 
    9765.277     25659.00    278132.00 
    9766.885     25640.00    278078.00 
    9768.494     25476.00    277822.00 
    9770.103     25127.00    277782.00 
    9771.754     24658.00    277639.00 
    9773.487     23911.00    276345.00 
    9775.098     22924.00    272620.00 
    9776.832     23019.00    281371.00 
    9778.486     22540.00    280206.00 
    9780.223     22322.00    279321.00 
    9781.959     22248.00    278705.00 
    9783.654     22190.00    278166.00 
    9785.477     22006.00    276952.00 
    9787.174     21992.00    278369.00 
    9788.995     21875.00    278041.00 
    9790.776     21917.00    278072.00 
    9792.518     22130.00    277763.00 
    9794.384     22557.00    277719.00 
    9796.167     22978.00    277647.00 
    9797.994     23452.00    277729.00 
    9799.901     23881.00    277517.00 
    9801.771     24209.00    276967.00 
    9803.641     24695.00    277941.00 
    9805.469     25014.00    277905.00 
    9807.382     25250.00    277977.00 
    9809.295     25382.00    277845.00 
    9811.209     25452.00    278029.00 
    9813.124     25419.00    277918.00 
    9815.122     25375.00    278109.00 
    9817.039     25256.00    278118.00 
    9819.039     25061.00    277940.00 
    9820.957     24961.00    278167.00 
    9822.958     25004.00    278148.00 
    9825.004     25181.00    277971.00 
    9827.049     25386.00    278113.00 
    9829.011     25482.00    276830.00 
    9831.060     25684.00    278146.00 
    9833.106     25735.00    278160.00 
    9835.197     25722.00    277683.00 
    9837.248     25819.00    277849.00 
    9839.340     25949.00    277834.00 
    9841.517     26117.00    277625.00 
    9843.611     26254.00    277704.00 
    9845.707     26279.00    277445.00 
    9847.846     25976.00    274598.00 
    9849.984     26058.00    276950.00 
    9852.208     26125.00    279608.00 
    9854.391     25840.00    278839.00 
    9856.575     25612.00    278404.00 
    9858.761     25350.00    278228.00 
    9860.947     25133.00    277878.00 
    9863.176     24914.00    277806.00 
    9865.405     24801.00    277793.00 
    9867.637     24812.00    277820.00 
    9869.954     24937.00    277728.00 
    9872.187     25142.00    277946.00 
    9874.505     25289.00    277718.00 
    9876.782     25434.00    277802.00 
    9879.103     25454.00    276935.00 
    9881.425     25676.00    278257.00 
    9883.790     25807.00    278156.00 
    9886.073     26000.00    278112.00 
    9888.440     26263.00    277890.00 
    9890.810     26561.00    277895.00 
    9893.221     26832.00    277269.00 
    9895.634     27157.00    278031.00 
    9898.049     27341.00    277801.00 
    9900.464     27469.00    277732.00 
    9902.882     27563.00    277675.00 
    9905.300     27502.00    277497.00 
    9907.761     27462.00    277222.00 
    9910.225     27455.00    277253.00 
    9912.730     27484.00    277306.00 
    9915.239     27589.00    277278.00 
    9917.750     27675.00    277236.00 
    9920.260     27610.00    275781.00 
    9922.771     27896.00    277909.00 
    9925.286     27899.00    277397.00 
    9927.842     27937.00    277448.00 
    9930.400     27921.00    277270.00 
    9933.003     27964.00    277332.00 
    9935.607     28009.00    277397.00 
    9938.214     28089.00    277435.00 
    9940.776     28163.00    277616.00 
    9943.429     28251.00    277676.00 
    9946.038     28376.00    277736.00 
    9948.691     28429.00    277767.00 
    9951.391     28486.00    277842.00 
    9954.047     28490.00    277718.00 
    9956.791     28480.00    277797.00 
    9959.450     28475.00    277882.00 
    9962.153     28529.00    277901.00 
    9964.860     28598.00    277806.00 
    9967.653     28674.00    277904.00 
    9970.405     28730.00    277817.00 
    9973.201     28804.00    277887.00 
    9975.912     28870.00    277514.00 
    9978.712     28986.00    277601.00 
    9981.513     29062.00    277282.00 
    9984.315     28787.00    273533.00 
    9987.120     29553.00    279685.00 
    9989.969     29514.00    278804.00 
    9992.819     29600.00    278282.00 
    9995.585     29706.00    277621.00 
    9998.569     29852.00    277492.00 
   10001.380     29908.00    276710.00 
   10004.330     30081.00    276566.00 
   10007.230     30366.00    277694.00 
   10010.170     30504.00    277558.00 
   10013.080     30637.00    277556.00 
   10015.990     30737.00    277403.00 
   10018.940     30870.00    277407.00 
   10021.980     30955.00    277378.00 
   10024.900     31060.00    277413.00 
   10027.940     31182.00    277438.00 
   10030.900     31266.00    277413.00 
   10033.950     31367.00    277476.00 
   10036.960     31412.00    277589.00 
   10040.010     31475.00    277445.00 
   10043.060     31530.00    277527.00 
   10046.160     31577.00    277566.00 
   10049.180     31617.00    277494.00 
   10052.280     31689.00    277421.00 
   10055.390     31795.00    277639.00 
   10058.500     31879.00    277725.00 
   10061.600     31931.00    277528.00 
   10064.800     32038.00    277520.00 
   10067.960     32109.00    277174.00 
   10071.120     32236.00    277525.00 
   10074.280     32341.00    277635.00 
   10077.490     32439.00    277471.00 
   10080.660     32535.00    277710.00 
   10083.870     32613.00    277569.00 
   10087.080     32705.00    277472.00 
   10090.340     32772.00    277477.00 
   10093.600     32892.00    277323.00 
   10096.820     32992.00    277250.00 
   10100.090     33146.00    277372.00 
   10103.400     33279.00    277314.00 
   10106.720     33361.00    276932.00 
   10110.040     33529.00    277155.00 
   10113.350     33639.00    277152.00 
   10116.680     33795.00    277340.00 
   10120.000     33904.00    277264.00 
   10123.370     34034.00    277339.00 
   10126.740     34163.00    277428.00 
   10130.160     34337.00    277500.00 
   10133.500     34458.00    277429.00 
   10136.920     34611.00    277341.00 
   10140.300     34798.00    277405.00 
   10143.730     34938.00    277348.00 
   10147.250     35065.00    277361.00 
   10150.640     35185.00    277212.00 
   10154.120     35259.00    277176.00 
   10157.650     35362.00    277008.00 
   10161.130     35483.00    277137.00 
   10164.620     35580.00    277007.00 
   10168.160     35664.00    277028.00 
   10171.650     35770.00    276807.00 
   10175.240     35854.00    276793.00 
   10178.730     35933.00    276836.00 
   10182.370     36043.00    276807.00 
   10185.870     36091.00    276373.00 
   10189.510     36263.00    276933.00 
   10193.060     36353.00    276885.00 
   10196.710     36452.00    276945.00 
   10200.360     36436.00    275998.00 
   10204.010     36668.00    276681.00 
   10207.620     37001.00    278586.00 
