#XDI/1.1  GSE/1.0
# Column.1: energy eV
# Column.2: itrans
# Column.3: i0
# Scan.end_time: 2006-12-17 08:31:13
# Scan.start_time: 2006-12-17 08:12:23
# Element.symbol:  Zn
# Element.edge:  K
# Facility.Name:  APS
# Beamline.Name:  13-BM-D
# Beamline.xray_source:  bending magnet
# Mono.dspacing:  3.13555
# Mono.name: Si 111
# Beamline.Storage_Ring_Current: 101.719 || S:SRcurrentAI.VAL
# Beamline.FOE_Mono_angle_readback: 12.0648 || 13BMA:m17.RBV
# Beamline.Mono_Energy_drive_val: 9459.0000 || 13BMA:E:Energy.VAL
# Beamline.Mono_Energy_readback: 9453.8055 || 13BMA:E:E_RBV
# Beamline.Mono_Beam_Offset: 21.0000 || 13BMA:E:height.VAL
# Beamline.I0_sensitivity_value: 10 || 13BMD:A3sens_num.VAL
# Beamline.I0_sensitivity_value: nA/V || 13BMD:A3sens_unit.VAL
# Beamline.I1_sensitivity_value: 2 || 13BMD:A2sens_num.VAL
# Beamline.I1_sensitivity_value: nA/V || 13BMD:A2sens_unit.VAL
# Beamline.FOE_Mono_Yout: 11.0387 || 13BMA:m10.VAL
# Beamline.FOE_Mono_Yin: 11.2521 || 13BMA:m11.VAL
# Beamline.FOE_Mono_Yup: 10.2891 || 13BMA:m12.VAL
# Beamline.FOE_Mono_Cage_Y: 0.000 || 13BMA:m13.VAL
# Beamline.FOE_Mono_Z: 52.577 || 13BMA:m14.VAL
# Beamline.FOE_Mono_angle: 12.0648 || 13BMA:m17.VAL
# Beamline.BMD_Horiz_Width: 6.000 || 13BMD:BMDHt2.C
# Beamline.BMD_Horiz_Center: 1.000 || 13BMD:BMDHt2.D
# Beamline.BMD_Vertical_Width: 1.000 || 13BMD:BMDVt2.C
# Beamline.BMD_Vertical_Center: -10.900 || 13BMD:BMDVt2.D
# Beamline.Sample_X: 124.258 || 13BMD:m70.VAL
# Beamline.Sample_Z__focus: 0.000 || 13BMD:m33.VAL
# Beamline.Sample_Y__height: 75.098 || 13BMD:m34.VAL
# Beamline.CCD_Z: 87.500 || 13BMD:m35.VAL
# Beamline.Hori__slit_X: 25.000 || 13BMD:m27.VAL
# Beamline.V_Bottom: 0.000 || 13BMD:m28.VAL
# Beamline.Hw_UpStream: 1000 || 13BMD:m78.VAL
# Beamline.Vp_UpStream: 944 || 13BMD:m79.VAL
# Beamline.Vw_UpStream: -165400 || 13BMD:m80.VAL
# ScanParameters.Start: Scan.Member: Value
# ScanParameters.E0: 9659.00
# ScanParameters.Legend: Start       Stop       Step       Npts       Time   Kspace?
# ScanParameters.Region1: -200.00    -10.000     5.0000     39.000     2.0000   0
# ScanParameters.Region2: -10.000     25.000    0.25000     141.00     2.0000   0
# ScanParameters.Region3: 2.5616     12.000   0.039993     237.00     2.0000   1
# ScanParameters.End: here
#-------------------------
#  energy  itrans  i0
    9459.017    390240.00    294405.00 
    9463.885    386148.00    290642.00 
    9468.992    383036.00    287809.00 
    9474.024    381818.00    286272.00 
    9479.026    380998.00    285094.00 
    9483.994    380678.00    284306.00 
    9489.005    380929.00    283857.00 
    9494.022    381317.00    283547.00 
    9499.006    381546.00    283218.00 
    9503.995    382434.00    283244.00 
    9509.027    383211.00    283243.00 
    9513.989    383974.00    283188.00 
    9518.993    384670.00    283211.00 
    9524.005    385494.00    283241.00 
    9529.020    386401.00    283352.00 
    9534.001    387135.00    283363.00 
    9538.988    387896.00    283341.00 
    9544.021    388910.00    283545.00 
    9549.019    389644.00    283550.00 
    9554.021    390400.00    283482.00 
    9558.990    391376.00    283699.00 
    9564.006    391954.00    283558.00 
    9569.024    392716.00    283594.00 
    9574.010    390755.00    281637.00 
    9579.000    394353.00    283718.00 
    9583.996    396353.00    284634.00 
    9588.997    396487.00    284270.00 
    9594.004    397055.00    284167.00 
    9599.016    397346.00    283909.00 
    9603.993    397897.00    283888.00 
    9609.016    398122.00    283625.00 
    9614.004    398517.00    283550.00 
    9618.996    399194.00    283702.00 
    9623.995    399126.00    283462.00 
    9628.999    399312.00    283429.00 
    9634.049    397959.00    282522.00 
    9639.023    399421.00    283916.00 
    9644.002    397632.00    283561.00 
    9649.027    394505.00    283480.00 
    9649.269    394539.00    283749.00 
    9649.510    395094.00    284295.00 
    9649.752    395149.00    284459.00 
    9649.993    395238.00    284704.00 
    9650.315    395109.00    284840.00 
    9650.557    394825.00    284791.00 
    9650.757    394747.00    285001.00 
    9650.998    394522.00    285065.00 
    9651.280    394076.00    284978.00 
    9651.562    393649.00    284947.00 
    9651.805    393190.00    284916.00 
    9652.045    393224.00    285265.00 
    9652.246    392671.00    285184.00 
    9652.529    392394.00    285256.00 
    9652.771    391839.00    285222.00 
    9653.011    391425.00    285322.00 
    9653.252    390856.00    285274.00 
    9653.535    390323.00    285255.00 
    9653.815    389720.00    285218.00 
    9654.059    389202.00    285356.00 
    9654.260    388380.00    285241.00 
    9654.541    387651.00    285210.00 
    9654.742    386940.00    285279.00 
    9655.024    385968.00    285254.00 
    9655.306    385054.00    285175.00 
    9655.507    384163.00    285237.00 
    9655.750    383108.00    285207.00 
    9656.031    382158.00    285253.00 
    9656.314    380908.00    285212.00 
    9656.556    379754.00    285222.00 
    9656.757    378460.00    285177.00 
    9656.998    377111.00    285239.00 
    9657.241    375664.00    285249.00 
    9657.522    373549.00    285214.00 
    9657.805    371525.00    285191.00 
    9658.046    369368.00    285212.00 
    9658.248    366866.00    285202.00 
    9658.489    364133.00    285241.00 
    9658.812    360338.00    285284.00 
    9659.054    356784.00    285316.00 
    9659.296    352516.00    285336.00 
    9659.498    347793.00    285319.00 
    9659.739    342639.00    285276.00 
    9660.021    335444.00    285324.00 
    9660.304    328830.00    285319.00 
    9660.545    321889.00    285144.00 
    9660.788    314620.00    285163.00 
    9661.029    307172.00    285108.00 
    9661.271    297764.00    284923.00 
    9661.554    289088.00    285046.00 
    9661.796    279743.00    285058.00 
    9662.037    268788.00    285089.00 
    9662.238    255571.00    285171.00 
    9662.521    238260.00    285159.00 
    9662.804    220998.00    285094.00 
    9663.047    203297.00    285212.00 
    9663.288    185460.00    285194.00 
    9663.530    168207.00    285146.00 
    9663.771    151256.00    285169.00 
    9664.015    138934.00    285157.00 
    9664.297    128597.00    285127.00 
    9664.538    120362.00    285157.00 
    9664.781    113311.00    285127.00 
    9665.023    106725.00    285181.00 
    9665.265    102285.00    285084.00 
    9665.548     98592.00    285180.00 
    9665.750     95514.00    285138.00 
    9665.991     92854.00    285217.00 
    9666.274     90137.00    285265.00 
    9666.557     88127.00    285230.00 
    9666.799     86258.00    285189.00 
    9667.002     84691.00    285164.00 
    9667.283     83279.00    285160.00 
    9667.525     81903.00    285162.00 
    9667.809     80952.00    285106.00 
    9668.051     80234.00    285103.00 
    9668.253     79911.00    285097.00 
    9668.536     80139.00    285140.00 
    9668.778     81209.00    285094.00 
    9669.020     83057.00    285026.00 
    9669.264     85808.00    284932.00 
    9669.545     89151.00    284761.00 
    9669.747     93172.00    284801.00 
    9670.031     97891.00    284947.00 
    9670.272    103707.00    284749.00 
    9670.555    108851.00    284578.00 
    9670.757    114317.00    284794.00 
    9671.040    119510.00    284762.00 
    9671.242    124530.00    284620.00 
    9671.526    129695.00    284818.00 
    9671.769    133473.00    284870.00 
    9672.050    136715.00    284751.00 
    9672.294    139364.00    284675.00 
    9672.496    141865.00    284935.00 
    9672.778    143896.00    284855.00 
    9673.021    145901.00    284761.00 
    9673.264    147412.00    284788.00 
    9673.506    148956.00    285019.00 
    9673.790    150223.00    285052.00 
    9674.032    151514.00    285088.00 
    9674.274    152798.00    285131.00 
    9674.517    153915.00    285074.00 
    9674.800    155089.00    285090.00 
    9675.002    156153.00    285051.00 
    9675.285    157319.00    285105.00 
    9675.528    158681.00    285066.00 
    9675.771    159869.00    285056.00 
    9676.055    161103.00    285138.00 
    9676.297    162330.00    285062.00 
    9676.539    163646.00    285128.00 
    9676.781    164962.00    285078.00 
    9677.025    166533.00    285075.00 
    9677.308    167828.00    285083.00 
    9677.552    168940.00    285106.00 
    9677.794    169982.00    285014.00 
    9678.036    170895.00    285041.00 
    9678.279    171561.00    284929.00 
    9678.522    172179.00    284787.00 
    9678.806    172564.00    284602.00 
    9679.048    173011.00    284788.00 
    9679.292    173288.00    284846.00 
    9679.534    173247.00    284651.00 
    9679.776    173171.00    284587.00 
    9680.021    173293.00    284906.00 
    9680.304    173088.00    284867.00 
    9680.546    172816.00    284827.00 
    9680.790    172550.00    284860.00 
    9681.032    172166.00    284833.00 
    9681.275    171631.00    284935.00 
    9681.520    171160.00    284928.00 
    9681.802    170649.00    284997.00 
    9682.044    170026.00    284945.00 
    9682.288    169424.00    284846.00 
    9682.531    168827.00    284555.00 
    9682.773    168423.00    284605.00 
    9683.059    168275.00    284816.00 
    9683.301    167989.00    284720.00 
    9683.543    167858.00    284618.00 
    9683.746    167888.00    284778.00 
    9683.990    168022.00    284949.00 
    9684.800    168428.00    284930.00 
    9685.610    168990.00    284984.00 
    9686.421    169505.00    284944.00 
    9687.232    169975.00    284955.00 
    9688.084    171063.00    284803.00 
    9688.896    173320.00    284834.00 
    9689.787    177291.00    284761.00 
    9690.640    182098.00    284840.00 
    9691.531    186564.00    284877.00 
    9692.425    189593.00    284874.00 
    9693.278    190569.00    284827.00 
    9694.253    189584.00    284690.00 
    9695.187    187005.00    284745.00 
    9696.121    183234.00    284850.00 
    9697.096    179095.00    284910.00 
    9698.071    175019.00    284885.00 
    9699.047    171655.00    284758.00 
    9700.021    169192.00    284533.00 
    9701.039    167347.00    284720.00 
    9702.056    165574.00    284729.00 
    9703.072    163578.00    284464.00 
    9704.131    161234.00    284683.00 
    9705.189    158622.00    284538.00 
    9706.247    155759.00    284478.00 
    9707.347    152338.00    284574.00 
    9708.404    148665.00    284250.00 
    9709.545    144381.00    283445.00 
    9710.646    141671.00    283920.00 
    9711.787    140447.00    285443.00 
    9712.929    139403.00    284962.00 
    9714.070    139244.00    284779.00 
    9715.212    139690.00    284657.00 
    9716.395    140578.00    284285.00 
    9717.579    142043.00    284360.00 
    9718.803    143699.00    284163.00 
    9720.028    145657.00    284151.00 
    9721.253    147612.00    284287.00 
    9722.478    149274.00    284198.00 
    9723.704    150902.00    284207.00 
    9724.970    152558.00    284302.00 
    9726.237    153970.00    284288.00 
    9727.506    155027.00    283780.00 
    9728.814    154966.00    281417.00 
    9729.960    158228.00    285672.00 
    9731.475    159639.00    286534.00 
    9732.825    160212.00    286004.00 
    9734.176    160919.00    285594.00 
    9735.527    161848.00    285382.00 
    9736.880    162720.00    285048.00 
    9738.231    163432.00    284871.00 
    9739.625    164365.00    284933.00 
    9741.021    165198.00    284868.00 
    9742.496    166078.00    284812.00 
    9743.933    166634.00    284692.00 
    9745.368    166870.00    284309.00 
    9746.847    167353.00    284679.00 
    9748.283    167362.00    284603.00 
    9749.804    167193.00    284460.00 
    9751.242    167120.00    284605.00 
    9752.804    166857.00    284244.00 
    9754.244    166833.00    284284.00 
    9755.807    166706.00    284235.00 
    9757.370    166478.00    284401.00 
    9758.893    165956.00    284175.00 
    9760.457    165418.00    284328.00 
    9762.021    164529.00    284170.00 
    9763.671    163596.00    284281.00 
    9765.277    162553.00    284232.00 
    9766.927    161547.00    284279.00 
    9768.494    160581.00    284226.00 
    9770.103    159533.00    283960.00 
    9771.754    158782.00    283941.00 
    9773.487    157327.00    282389.00 
    9775.098    155111.00    279319.00 
    9776.832    159611.00    287876.00 
    9778.527    158635.00    286611.00 
    9780.223    157975.00    285573.00 
    9781.959    157897.00    285176.00 
    9783.654    157876.00    284620.00 
    9785.477    157720.00    283417.00 
    9787.174    158958.00    284805.00 
    9788.995    159512.00    284680.00 
    9790.776    160039.00    284504.00 
    9792.561    160565.00    284385.00 
    9794.384    161306.00    284494.00 
    9796.167    161916.00    284486.00 
    9797.994    162520.00    284372.00 
    9799.901    162947.00    283975.00 
    9801.771    163490.00    283919.00 
    9803.641    164100.00    284360.00 
    9805.469    164518.00    284560.00 
    9807.382    164728.00    284463.00 
    9809.295    164836.00    284257.00 
    9811.250    164989.00    284261.00 
    9813.124    165179.00    284286.00 
    9815.122    165454.00    284394.00 
    9817.039    165489.00    284238.00 
    9819.039    165690.00    284415.00 
    9820.957    165682.00    284297.00 
    9822.958    165855.00    284374.00 
    9824.963    166115.00    284376.00 
    9827.007    166403.00    284401.00 
    9829.011    166024.00    283207.00 
    9831.060    167245.00    284844.00 
    9833.106    167407.00    284646.00 
    9835.197    167529.00    284441.00 
    9837.248    167757.00    284487.00 
    9839.340    167944.00    284314.00 
    9841.476    168200.00    284351.00 
    9843.570    168348.00    284162.00 
    9845.707    168442.00    283969.00 
    9847.846    166484.00    280384.00 
    9849.984    169119.00    284462.00 
    9852.250    170082.00    286130.00 
    9854.391    169649.00    285358.00 
    9856.575    169408.00    284829.00 
    9858.761    169343.00    284640.00 
    9860.947    169132.00    284420.00 
    9863.176    169065.00    284305.00 
    9865.405    168915.00    284148.00 
    9867.637    168818.00    284003.00 
    9869.954    168828.00    283981.00 
    9872.229    169041.00    284226.00 
    9874.464    169087.00    284123.00 
    9876.782    169141.00    283962.00 
    9879.103    168831.00    283122.00 
    9881.384    169884.00    284679.00 
    9883.749    169908.00    284389.00 
    9886.073    170036.00    284264.00 
    9888.440    170406.00    284332.00 
    9890.810    170525.00    284075.00 
    9893.221    170506.00    283492.00 
    9895.634    171416.00    284568.00 
    9898.049    171561.00    284374.00 
    9900.464    171743.00    284134.00 
    9902.882    172105.00    284177.00 
    9905.300    172279.00    284074.00 
    9907.761    172524.00    283920.00 
    9910.225    172775.00    283886.00 
    9912.730    173214.00    284022.00 
    9915.197    173407.00    283843.00 
    9917.750    173575.00    283716.00 
    9920.260    173083.00    282382.00 
    9922.771    174606.00    284256.00 
    9925.286    174688.00    283979.00 
    9927.842    174997.00    283796.00 
    9930.400    175372.00    283685.00 
    9932.961    175698.00    283618.00 
    9935.564    176030.00    283566.00 
    9938.214    176473.00    283708.00 
    9940.776    176936.00    283748.00 
    9943.429    177314.00    283807.00 
    9946.038    177679.00    283892.00 
    9948.691    177887.00    283918.00 
    9951.391    178084.00    283946.00 
    9954.047    178392.00    284027.00 
    9956.747    178606.00    284124.00 
    9959.450    178633.00    284089.00 
    9962.153    178864.00    284163.00 
    9964.860    179015.00    284174.00 
    9967.653    179016.00    284020.00 
    9970.405    179247.00    284107.00 
    9973.157    179343.00    284055.00 
    9975.912    179400.00    283881.00 
    9978.712    179531.00    283898.00 
    9981.470    179546.00    283471.00 
    9984.272    177424.00    279750.00 
    9987.120    181465.00    285724.00 
    9989.926    181109.00    284802.00 
    9992.776    181069.00    284321.00 
    9995.628    181061.00    283812.00 
    9998.524    181295.00    283659.00 
   10001.380    181246.00    283054.00 
   10004.330    181426.00    282787.00 
   10007.230    182799.00    284398.00 
   10010.130    182893.00    283998.00 
   10012.860    183295.00    284079.00 
   10015.990    183568.00    284025.00 
   10018.940    183831.00    283956.00 
   10021.980    184153.00    283972.00 
   10024.900    184498.00    283941.00 
   10027.980    184955.00    284105.00 
   10030.900    185110.00    283867.00 
   10033.950    185432.00    283900.00 
   10036.960    185777.00    283958.00 
   10040.050    185999.00    283768.00 
   10043.110    186342.00    283915.00 
   10046.210    186628.00    283853.00 
   10049.180    186768.00    283667.00 
   10052.110    187135.00    283685.00 
   10055.390    187535.00    283752.00 
   10058.500    187893.00    283909.00 
   10061.600    188169.00    283829.00 
   10064.800    188520.00    283694.00 
   10067.960    188850.00    283641.00 
   10071.120    189233.00    283860.00 
   10074.330    189574.00    283822.00 
   10077.450    189746.00    283745.00 
   10080.660    190157.00    283900.00 
   10083.870    190398.00    283818.00 
   10087.080    190705.00    283807.00 
   10090.300    191038.00    283910.00 
   10093.600    191225.00    283830.00 
   10096.820    191470.00    283821.00 
   10100.090    191794.00    283852.00 
   10103.400    192003.00    283701.00 
   10106.720    191968.00    283308.00 
   10110.040    192586.00    283710.00 
   10113.350    192851.00    283573.00 
   10116.630    193018.00    283376.00 
   10119.960    193427.00    283426.00 
   10123.370    193736.00    283428.00 
   10126.790    194113.00    283572.00 
   10130.160    194473.00    283431.00 
   10133.500    194830.00    283506.00 
   10136.920    195122.00    283437.00 
   10140.350    195528.00    283562.00 
   10143.780    195852.00    283481.00 
   10147.250    196200.00    283454.00 
   10150.640    196605.00    283606.00 
   10154.120    197069.00    283691.00 
   10157.650    197379.00    283648.00 
   10161.130    197785.00    283750.00 
   10164.620    198144.00    283700.00 
   10168.160    198521.00    283745.00 
   10171.650    198858.00    283685.00 
   10175.240    199202.00    283649.00 
   10178.730    199603.00    283784.00 
   10182.370    199850.00    283617.00 
   10185.870    199898.00    283179.00 
   10189.470    200931.00    284090.00 
   10193.060    201157.00    283847.00 
   10196.710    201315.00    283667.00 
   10200.310    200927.00    282542.00 
   10203.960    202146.00    283865.00 
   10207.620    203324.00    284847.00 
