#XDI/1.1  GSE/1.0
# Column.1: energy eV
# Column.2: itrans
# Column.3: i0
# Scan.end_time: 2006-12-17 10:03:08
# Scan.start_time: 2006-12-17 09:44:46
# Element.symbol:  Zn
# Element.edge:  K
# Facility.Name:  APS
# Beamline.Name:  13-BM-D
# Beamline.xray_source:  bending magnet
# Mono.dspacing:  3.13555
# Mono.name: Si 111
# Beamline.Storage_Ring_Current: 100.459 || S:SRcurrentAI.VAL
# Beamline.FOE_Mono_angle_readback: 12.0648 || 13BMA:m17.RBV
# Beamline.Mono_Energy_drive_val: 9459.0000 || 13BMA:E:Energy.VAL
# Beamline.Mono_Energy_readback: 9453.9983 || 13BMA:E:E_RBV
# Beamline.Mono_Beam_Offset: 21.0000 || 13BMA:E:height.VAL
# Beamline.I0_sensitivity_value: 10 || 13BMD:A3sens_num.VAL
# Beamline.I0_sensitivity_value: nA/V || 13BMD:A3sens_unit.VAL
# Beamline.I1_sensitivity_value: 2 || 13BMD:A2sens_num.VAL
# Beamline.I1_sensitivity_value: nA/V || 13BMD:A2sens_unit.VAL
# Beamline.FOE_Mono_Yout: 11.0387 || 13BMA:m10.VAL
# Beamline.FOE_Mono_Yin: 11.2521 || 13BMA:m11.VAL
# Beamline.FOE_Mono_Yup: 10.2891 || 13BMA:m12.VAL
# Beamline.FOE_Mono_Cage_Y: 0.000 || 13BMA:m13.VAL
# Beamline.FOE_Mono_Z: 52.577 || 13BMA:m14.VAL
# Beamline.FOE_Mono_angle: 12.0648 || 13BMA:m17.VAL
# Beamline.BMD_Horiz_Width: 6.000 || 13BMD:BMDHt2.C
# Beamline.BMD_Horiz_Center: 1.000 || 13BMD:BMDHt2.D
# Beamline.BMD_Vertical_Width: 1.000 || 13BMD:BMDVt2.C
# Beamline.BMD_Vertical_Center: -10.900 || 13BMD:BMDVt2.D
# Beamline.Sample_X: 122.259 || 13BMD:m70.VAL
# Beamline.Sample_Z__focus: 0.000 || 13BMD:m33.VAL
# Beamline.Sample_Y__height: 4.099 || 13BMD:m34.VAL
# Beamline.CCD_Z: 87.500 || 13BMD:m35.VAL
# Beamline.Hori__slit_X: 25.000 || 13BMD:m27.VAL
# Beamline.V_Bottom: 0.000 || 13BMD:m28.VAL
# Beamline.Hw_UpStream: 1000 || 13BMD:m78.VAL
# Beamline.Vp_UpStream: 944 || 13BMD:m79.VAL
# Beamline.Vw_UpStream: -165400 || 13BMD:m80.VAL
# ScanParameters.Start: Scan.Member: Value
# ScanParameters.E0: 9659.00
# ScanParameters.Legend: Start       Stop       Step       Npts       Time   Kspace?
# ScanParameters.Region1: -200.00    -10.000     5.0000     39.000     2.0000   0
# ScanParameters.Region2: -10.000     25.000    0.25000     141.00     2.0000   0
# ScanParameters.Region3: 2.5616     12.000   0.039993     237.00     2.0000   1
# ScanParameters.End: here
#-------------------------
#  energy  itrans  i0
    9459.017    308009.00    283689.00 
    9463.963    306689.00    281784.00 
    9468.992    306650.00    281062.00 
    9473.986    306839.00    280720.00 
    9479.026    307244.00    280342.00 
    9483.994    307553.00    280058.00 
    9489.005    308278.00    280095.00 
    9494.022    308802.00    279934.00 
    9499.006    309252.00    279725.00 
    9503.995    309903.00    279681.00 
    9508.988    310747.00    279693.00 
    9513.989    311474.00    279696.00 
    9518.993    311975.00    279537.00 
    9524.005    312707.00    279520.00 
    9529.020    313392.00    279500.00 
    9534.001    314136.00    279490.00 
    9538.988    314618.00    279298.00 
    9544.021    315601.00    279482.00 
    9549.019    316408.00    279581.00 
    9554.021    317190.00    279594.00 
    9558.990    317950.00    279640.00 
    9564.006    318580.00    279639.00 
    9569.024    319464.00    279793.00 
    9574.010    317955.00    277879.00 
    9579.000    321207.00    280117.00 
    9583.996    323021.00    281104.00 
    9588.997    323427.00    280839.00 
    9594.004    323837.00    280740.00 
    9599.016    324465.00    280690.00 
    9603.993    325024.00    280681.00 
    9609.016    325483.00    280558.00 
    9614.004    325955.00    280455.00 
    9618.996    326292.00    280376.00 
    9623.995    326479.00    280258.00 
    9628.999    326647.00    280272.00 
    9634.009    325355.00    279166.00 
    9639.023    325975.00    280116.00 
    9644.002    324402.00    279798.00 
    9649.027    321426.00    279750.00 
    9649.269    321367.00    279933.00 
    9649.510    321567.00    280262.00 
    9649.752    321580.00    280494.00 
    9649.993    321624.00    280674.00 
    9650.315    321609.00    280962.00 
    9650.557    321469.00    281023.00 
    9650.757    321436.00    281257.00 
    9651.040    321085.00    281185.00 
    9651.280    321092.00    281494.00 
    9651.521    320981.00    281674.00 
    9651.765    320712.00    281765.00 
    9652.006    320439.00    281819.00 
    9652.246    320109.00    281913.00 
    9652.529    319911.00    282097.00 
    9652.771    319461.00    282205.00 
    9653.011    318687.00    281965.00 
    9653.252    318135.00    281951.00 
    9653.535    317776.00    282037.00 
    9653.776    317198.00    282051.00 
    9654.059    316510.00    281970.00 
    9654.260    315676.00    281840.00 
    9654.501    314917.00    281741.00 
    9654.783    314143.00    281728.00 
    9655.024    313154.00    281675.00 
    9655.306    312195.00    281636.00 
    9655.507    311245.00    281599.00 
    9655.790    310032.00    281407.00 
    9655.991    308799.00    281202.00 
    9656.274    307798.00    281385.00 
    9656.516    306576.00    281287.00 
    9656.757    305212.00    281157.00 
    9656.998    304044.00    281408.00 
    9657.280    302526.00    281389.00 
    9657.522    300359.00    281251.00 
    9657.805    298559.00    281419.00 
    9658.006    296587.00    281604.00 
    9658.287    294355.00    281667.00 
    9658.530    291760.00    281705.00 
    9658.812    288200.00    281738.00 
    9659.054    284694.00    281695.00 
    9659.296    280801.00    281694.00 
    9659.498    276226.00    281717.00 
    9659.739    270890.00    281689.00 
    9660.063    263447.00    281659.00 
    9660.304    256067.00    281698.00 
    9660.545    247835.00    281652.00 
    9660.788    238528.00    281670.00 
    9661.029    228212.00    281581.00 
    9661.271    214755.00    281450.00 
    9661.554    201986.00    281249.00 
    9661.796    189194.00    281276.00 
    9662.037    175891.00    281420.00 
    9662.238    161864.00    281342.00 
    9662.521    146743.00    281362.00 
    9662.804    134052.00    281437.00 
    9663.047    122921.00    281548.00 
    9663.248    112654.00    281664.00 
    9663.490    102767.00    281703.00 
    9663.771     92136.00    281915.00 
    9664.055     82999.00    282052.00 
    9664.297     73738.00    282035.00 
    9664.498     64796.00    281790.00 
    9664.741     55856.00    281885.00 
    9665.023     46247.00    281990.00 
    9665.265     39168.00    281943.00 
    9665.548     33192.00    281837.00 
    9665.790     28745.00    281712.00 
    9665.991     25886.00    281682.00 
    9666.274     24167.00    281640.00 
    9666.557     23889.00    281690.00 
    9666.799     24355.00    281654.00 
    9667.002     25302.00    281625.00 
    9667.283     26659.00    281655.00 
    9667.525     28503.00    281642.00 
    9667.769     30345.00    281699.00 
    9668.051     32366.00    281682.00 
    9668.293     34632.00    281708.00 
    9668.536     37217.00    281777.00 
    9668.778     40394.00    281802.00 
    9669.020     43472.00    281961.00 
    9669.304     46777.00    281767.00 
    9669.545     50105.00    281660.00 
    9669.747     53588.00    281599.00 
    9670.031     57199.00    281549.00 
    9670.272     61494.00    281588.00 
    9670.515     65392.00    281517.00 
    9670.799     69284.00    281573.00 
    9671.000     73333.00    281456.00 
    9671.242     77423.00    281432.00 
    9671.526     81745.00    281335.00 
    9671.809     84947.00    281328.00 
    9672.050     87953.00    281461.00 
    9672.294     90344.00    281502.00 
    9672.496     92282.00    281546.00 
    9672.778     93977.00    281539.00 
    9673.021     95608.00    281628.00 
    9673.304     96703.00    281569.00 
    9673.506     97672.00    281617.00 
    9673.790     98368.00    281624.00 
    9673.992     98754.00    281593.00 
    9674.274     98780.00    281626.00 
    9674.517     98328.00    281649.00 
    9674.800     97328.00    281587.00 
    9675.002     95801.00    281540.00 
    9675.285     93835.00    281595.00 
    9675.528     90933.00    281605.00 
    9675.811     87929.00    281606.00 
    9676.055     84749.00    281664.00 
    9676.297     81380.00    281593.00 
    9676.539     78135.00    281497.00 
    9676.781     75144.00    281558.00 
    9677.065     72108.00    281479.00 
    9677.308     70104.00    281510.00 
    9677.552     68742.00    281532.00 
    9677.794     67955.00    281534.00 
    9678.036     67708.00    281444.00 
    9678.238     67999.00    281537.00 
    9678.522     68847.00    281483.00 
    9678.806     70010.00    281435.00 
    9679.048     71338.00    281342.00 
    9679.292     72892.00    281292.00 
    9679.534     74420.00    281290.00 
    9679.776     76293.00    281416.00 
    9680.061     77719.00    281508.00 
    9680.264     79090.00    281595.00 
    9680.546     80391.00    281581.00 
    9680.790     81776.00    281625.00 
    9681.032     83202.00    281609.00 
    9681.275     85113.00    281558.00 
    9681.560     86945.00    281560.00 
    9681.802     89061.00    281519.00 
    9682.044     91550.00    281455.00 
    9682.288     94291.00    281481.00 
    9682.531     97118.00    281476.00 
    9682.773    100751.00    281456.00 
    9683.059    103727.00    281507.00 
    9683.301    106702.00    281385.00 
    9683.543    109581.00    281238.00 
    9683.746    112301.00    281170.00 
    9683.990    114839.00    281243.00 
    9684.800    121511.00    281296.00 
    9685.610    124852.00    281107.00 
    9686.421    127207.00    280958.00 
    9687.232    130338.00    281205.00 
    9688.084    133835.00    281172.00 
    9688.896    135987.00    281049.00 
    9689.787    136679.00    281168.00 
    9690.640    135772.00    281266.00 
    9691.531    133723.00    281212.00 
    9692.425    130778.00    281137.00 
    9693.318    126995.00    281143.00 
    9694.253    122669.00    281298.00 
    9695.187    118249.00    281268.00 
    9696.121    114173.00    281130.00 
    9697.096    110433.00    281104.00 
    9698.071    106359.00    281233.00 
    9699.047    101680.00    281193.00 
    9700.021     96736.00    281143.00 
    9701.039     91424.00    281123.00 
    9702.056     86634.00    281207.00 
    9703.072     82880.00    281062.00 
    9704.131     80486.00    280968.00 
    9705.189     79806.00    280903.00 
    9706.247     79672.00    280856.00 
    9707.347     79308.00    280905.00 
    9708.404     78312.00    280634.00 
    9709.545     76724.00    279699.00 
    9710.646     75768.00    280241.00 
    9711.787     75672.00    281954.00 
    9712.929     75683.00    281496.00 
    9714.070     76453.00    281477.00 
    9715.212     77886.00    281272.00 
    9716.395     79921.00    281256.00 
    9717.579     82248.00    281133.00 
    9718.803     84635.00    281132.00 
    9720.028     86758.00    281289.00 
    9721.253     88173.00    281360.00 
    9722.478     88856.00    281200.00 
    9723.704     89242.00    281072.00 
    9724.970     89429.00    281120.00 
    9726.237     89552.00    280901.00 
    9727.546     89690.00    280209.00 
    9728.814     89483.00    277931.00 
    9730.124     91284.00    282254.00 
    9731.475     91883.00    282493.00 
    9732.783     92360.00    282028.00 
    9734.176     93137.00    281584.00 
    9735.527     94078.00    281280.00 
    9736.880     95099.00    280835.00 
    9738.231     96239.00    280894.00 
    9739.625     97452.00    280589.00 
    9741.021     98801.00    280547.00 
    9742.496     99962.00    280505.00 
    9743.933    100402.00    280419.00 
    9745.368    100118.00    280098.00 
    9746.806     99642.00    280321.00 
    9748.283     98846.00    280424.00 
    9749.804     97993.00    280387.00 
    9751.242     97524.00    280449.00 
    9752.804     97415.00    280551.00 
    9754.285     97503.00    280546.00 
    9755.807     97564.00    280543.00 
    9757.370     97367.00    280825.00 
    9758.934     96630.00    280828.00 
    9760.457     95680.00    280959.00 
    9762.021     94872.00    281231.00 
    9763.671     94342.00    281349.00 
    9765.277     94160.00    281375.00 
    9766.885     94230.00    281445.00 
    9768.494     94265.00    281483.00 
    9770.103     94021.00    281328.00 
    9771.754     93472.00    281040.00 
    9773.487     92335.00    279445.00 
    9775.098     90835.00    276331.00 
    9776.832     93491.00    284906.00 
    9778.527     93225.00    283475.00 
    9780.223     93171.00    282342.00 
    9781.959     93203.00    281784.00 
    9783.654     93001.00    281124.00 
    9785.477     92434.00    280044.00 
    9787.174     92764.00    281164.00 
    9788.995     92712.00    280948.00 
    9790.776     92588.00    280688.00 
    9792.561     92409.00    280458.00 
    9794.384     92233.00    280337.00 
    9796.167     92025.00    280255.00 
    9797.994     91967.00    280332.00 
    9799.901     91930.00    279643.00 
    9801.563     92364.00    279226.00 
    9803.641     93845.00    280317.00 
    9805.510     95109.00    280275.00 
    9807.382     96440.00    280328.00 
    9809.295     97688.00    280244.00 
    9811.209     98633.00    280359.00 
    9813.124     99351.00    280510.00 
    9815.164     99805.00    280548.00 
    9817.039    100107.00    280654.00 
    9819.039    100215.00    280751.00 
    9820.790    100142.00    280977.00 
    9822.958     99599.00    280760.00 
    9824.963     98922.00    280980.00 
    9827.007     97975.00    280899.00 
    9829.011     96913.00    279574.00 
    9831.060     97391.00    281353.00 
    9833.106     97653.00    281174.00 
    9835.239     98138.00    280918.00 
    9837.248     98667.00    280794.00 
    9839.340     99107.00    280978.00 
    9841.434     99250.00    280790.00 
    9843.570     99408.00    280748.00 
    9845.707     99526.00    280594.00 
    9847.846     98761.00    277193.00 
    9849.984    100521.00    281396.00 
    9852.208    101391.00    282893.00 
    9854.391    101264.00    282125.00 
    9856.575    101241.00    281699.00 
    9858.761    101115.00    281386.00 
    9860.947    101027.00    281175.00 
    9863.176    100976.00    281193.00 
    9865.405    100728.00    280878.00 
    9867.637    100513.00    280780.00 
    9869.954    100338.00    280731.00 
    9872.229    100290.00    280615.00 
    9874.464    100367.00    280662.00 
    9876.782    100484.00    280595.00 
    9879.103    100292.00    279694.00 
    9881.425    100750.00    280891.00 
    9883.749    100684.00    280871.00 
    9886.073    100406.00    280605.00 
    9888.440    100227.00    280699.00 
    9890.852    100174.00    280596.00 
    9893.179    100195.00    279890.00 
    9895.592    100931.00    281052.00 
    9898.006    101311.00    280787.00 
    9900.422    101754.00    280837.00 
    9902.882    102337.00    280665.00 
    9905.300    102985.00    280608.00 
    9907.761    103774.00    280413.00 
    9910.225    104565.00    280465.00 
    9912.646    105080.00    280451.00 
    9915.239    105457.00    280327.00 
    9917.750    105691.00    280308.00 
    9920.260    105335.00    279054.00 
    9922.771    106018.00    280728.00 
    9925.286    106068.00    280650.00 
    9927.842    106097.00    280487.00 
    9930.400    106081.00    280329.00 
    9932.961    106200.00    280439.00 
    9935.564    106381.00    280452.00 
    9938.214    106636.00    280418.00 
    9940.776    106968.00    280708.00 
    9943.429    106979.00    280429.00 
    9946.038    107118.00    280664.00 
    9948.691    107105.00    280536.00 
    9951.391    107144.00    280631.00 
    9954.047    107173.00    280527.00 
    9956.747    107201.00    280475.00 
    9959.450    107258.00    280482.00 
    9962.153    107382.00    280395.00 
    9964.860    107597.00    280502.00 
    9967.653    107905.00    280553.00 
    9970.405    108268.00    280545.00 
    9973.157    108833.00    280731.00 
    9975.912    109166.00    280268.00 
    9978.712    109902.00    280718.00 
    9981.513    110153.00    280281.00 
    9984.272    108908.00    276365.00 
    9987.120    111549.00    282770.00 
    9989.926    111205.00    281892.00 
    9992.776    110996.00    281326.00 
    9995.628    110802.00    280747.00 
    9998.524    110899.00    280670.00 
   10001.380    110698.00    279807.00 
   10004.500    110755.00    279606.00 
   10007.230    111363.00    280816.00 
   10010.130    111448.00    280646.00 
   10013.080    111505.00    280403.00 
   10016.030    111665.00    280236.00 
   10018.940    111974.00    280221.00 
   10021.980    112306.00    280116.00 
   10024.900    112724.00    280158.00 
   10027.940    113097.00    280128.00 
   10030.900    113460.00    280096.00 
   10033.950    113883.00    280176.00 
   10036.960    114234.00    280094.00 
   10040.050    114588.00    280060.00 
   10043.060    114817.00    279900.00 
   10046.160    115090.00    280006.00 
   10049.180    115190.00    279946.00 
   10052.280    115392.00    279944.00 
   10055.390    115734.00    280005.00 
   10058.500    116010.00    279979.00 
   10061.600    116441.00    280070.00 
   10064.800    116806.00    280224.00 
   10067.960    116989.00    280046.00 
   10071.120    117356.00    280329.00 
   10074.280    117542.00    280413.00 
   10077.490    117754.00    280496.00 
   10080.660    117871.00    280318.00 
   10083.870    118131.00    280502.00 
   10087.080    118346.00    280443.00 
   10090.300    118595.00    280511.00 
   10093.600    118873.00    280496.00 
   10096.820    119063.00    280425.00 
   10100.090    119356.00    280480.00 
   10103.360    119579.00    280378.00 
   10106.720    119832.00    280118.00 
   10110.040    120325.00    280520.00 
   10113.350    120558.00    280385.00 
   10116.680    120744.00    280285.00 
   10120.090    120895.00    280177.00 
   10123.370    121171.00    280138.00 
   10126.740    121341.00    280032.00 
   10130.160    121491.00    279901.00 
   10133.500    121669.00    279743.00 
   10136.920    121873.00    279735.00 
   10140.300    122183.00    279739.00 
   10143.730    122490.00    279762.00 
   10147.250    122726.00    279507.00 
   10150.640    123101.00    279577.00 
   10154.120    123459.00    279691.00 
   10157.650    123796.00    279703.00 
   10161.130    124132.00    279777.00 
   10164.620    124511.00    279904.00 
   10168.110    124769.00    279873.00 
   10171.650    125063.00    279850.00 
   10175.190    125405.00    279816.00 
   10178.730    125724.00    279843.00 
   10182.370    126085.00    279863.00 
   10185.870    126163.00    279416.00 
   10189.510    126764.00    280107.00 
   10193.060    126984.00    279942.00 
   10196.710    127223.00    279823.00 
   10200.310    127080.00    278833.00 
   10203.960    127616.00    279343.00 
   10207.620    128904.00    281246.00 
