#XDI/1.1  GSE/1.0
# Column.1: energy eV
# Column.2: itrans
# Column.3: i0
# Scan.end_time: 2006-12-17 11:00:36
# Scan.start_time: 2006-12-17 10:42:06
# Element.symbol:  Zn
# Element.edge:  K
# Facility.Name:  APS
# Beamline.Name:  13-BM-D
# Beamline.xray_source:  bending magnet
# Mono.dspacing:  3.13555
# Mono.name: Si 111
# Beamline.Storage_Ring_Current: 99.6899 || S:SRcurrentAI.VAL
# Beamline.FOE_Mono_angle_readback: 12.0630 || 13BMA:m17.RBV
# Beamline.Mono_Energy_drive_val: 9459.0000 || 13BMA:E:Energy.VAL
# Beamline.Mono_Energy_readback: 9453.9983 || 13BMA:E:E_RBV
# Beamline.Mono_Beam_Offset: 21.0000 || 13BMA:E:height.VAL
# Beamline.I0_sensitivity_value: 10 || 13BMD:A3sens_num.VAL
# Beamline.I0_sensitivity_value: nA/V || 13BMD:A3sens_unit.VAL
# Beamline.I1_sensitivity_value: 2 || 13BMD:A2sens_num.VAL
# Beamline.I1_sensitivity_value: nA/V || 13BMD:A2sens_unit.VAL
# Beamline.FOE_Mono_Yout: 11.0387 || 13BMA:m10.VAL
# Beamline.FOE_Mono_Yin: 11.2521 || 13BMA:m11.VAL
# Beamline.FOE_Mono_Yup: 10.2891 || 13BMA:m12.VAL
# Beamline.FOE_Mono_Cage_Y: 0.000 || 13BMA:m13.VAL
# Beamline.FOE_Mono_Z: 52.577 || 13BMA:m14.VAL
# Beamline.FOE_Mono_angle: 12.0648 || 13BMA:m17.VAL
# Beamline.BMD_Horiz_Width: 6.000 || 13BMD:BMDHt2.C
# Beamline.BMD_Horiz_Center: 1.000 || 13BMD:BMDHt2.D
# Beamline.BMD_Vertical_Width: 1.000 || 13BMD:BMDVt2.C
# Beamline.BMD_Vertical_Center: -10.900 || 13BMD:BMDVt2.D
# Beamline.Sample_X: 44.259 || 13BMD:m70.VAL
# Beamline.Sample_Z__focus: 0.000 || 13BMD:m33.VAL
# Beamline.Sample_Y__height: 28.099 || 13BMD:m34.VAL
# Beamline.CCD_Z: 87.500 || 13BMD:m35.VAL
# Beamline.Hori__slit_X: 25.000 || 13BMD:m27.VAL
# Beamline.V_Bottom: 0.000 || 13BMD:m28.VAL
# Beamline.Hw_UpStream: 1000 || 13BMD:m78.VAL
# Beamline.Vp_UpStream: 944 || 13BMD:m79.VAL
# Beamline.Vw_UpStream: -165400 || 13BMD:m80.VAL
# ScanParameters.Start: Scan.Member: Value
# ScanParameters.E0: 9659.00
# ScanParameters.Legend: Start       Stop       Step       Npts       Time   Kspace?
# ScanParameters.Region1: -200.00    -10.000     5.0000     39.000     2.0000   0
# ScanParameters.Region2: -10.000     25.000    0.25000     141.00     2.0000   0
# ScanParameters.Region3: 2.5616     12.000   0.039993     237.00     2.0000   1
# ScanParameters.End: here
#-------------------------
#  energy  itrans  i0
    9459.017    190734.00    288067.00 
    9463.925    188874.00    284217.00 
    9468.992    187692.00    281733.00 
    9473.986    187425.00    280599.00 
    9479.026    187207.00    279511.00 
    9483.994    187390.00    279013.00 
    9489.005    187759.00    278690.00 
    9494.022    188115.00    278388.00 
    9499.006    188652.00    278277.00 
    9503.995    189180.00    278232.00 
    9508.988    189782.00    278318.00 
    9513.989    190332.00    278273.00 
    9518.993    190898.00    278171.00 
    9524.005    191389.00    278211.00 
    9529.020    191816.00    278079.00 
    9534.001    192449.00    278124.00 
    9538.988    192728.00    277710.00 
    9544.021    193440.00    278007.00 
    9549.019    193873.00    277855.00 
    9554.021    194379.00    277773.00 
    9558.990    194916.00    277822.00 
    9564.006    195484.00    277851.00 
    9569.024    195817.00    277594.00 
    9574.010    195319.00    276089.00 
    9579.000    196809.00    277458.00 
    9583.996    198114.00    278597.00 
    9588.997    198416.00    278353.00 
    9594.004    198741.00    278173.00 
    9599.016    198996.00    277872.00 
    9603.993    199336.00    277722.00 
    9609.016    199651.00    277646.00 
    9614.004    200030.00    277690.00 
    9618.996    200089.00    277511.00 
    9623.995    200250.00    277565.00 
    9628.999    200188.00    277497.00 
    9634.009    199243.00    276444.00 
    9639.023    199563.00    278083.00 
    9644.002    197830.00    277873.00 
    9649.027    193970.00    277664.00 
    9649.269    193976.00    278270.00 
    9649.510    194005.00    278659.00 
    9649.752    193841.00    278870.00 
    9649.993    193834.00    279302.00 
    9650.275    193504.00    279399.00 
    9650.517    193200.00    279380.00 
    9650.797    192814.00    279361.00 
    9651.040    192432.00    279358.00 
    9651.280    192151.00    279499.00 
    9651.521    191771.00    279603.00 
    9651.765    191292.00    279621.00 
    9652.006    190776.00    279552.00 
    9652.246    190241.00    279601.00 
    9652.529    189764.00    279703.00 
    9652.810    189166.00    279861.00 
    9653.051    188640.00    280029.00 
    9653.252    187856.00    279904.00 
    9653.495    187101.00    279804.00 
    9653.776    186254.00    279876.00 
    9654.059    185487.00    279966.00 
    9654.260    184510.00    279774.00 
    9654.501    183398.00    279610.00 
    9654.742    182359.00    279593.00 
    9655.024    180987.00    279515.00 
    9655.266    179604.00    279528.00 
    9655.549    178299.00    279573.00 
    9655.790    176730.00    279563.00 
    9655.991    175163.00    279527.00 
    9656.274    173148.00    279501.00 
    9656.556    171442.00    279520.00 
    9656.797    169401.00    279478.00 
    9656.998    167269.00    279495.00 
    9657.280    164677.00    279344.00 
    9657.522    161203.00    279088.00 
    9657.764    157820.00    279163.00 
    9658.046    154050.00    279234.00 
    9658.248    149627.00    279097.00 
    9658.530    144808.00    279084.00 
    9658.771    138448.00    279294.00 
    9659.054    132315.00    279158.00 
    9659.296    125119.00    279138.00 
    9659.538    116875.00    279335.00 
    9659.779    107565.00    279426.00 
    9660.063     94875.00    279434.00 
    9660.304     83113.00    279453.00 
    9660.545     71347.00    279490.00 
    9660.788     59058.00    279479.00 
    9660.989     47650.00    279393.00 
    9661.271     36566.00    279380.00 
    9661.554     29348.00    279331.00 
    9661.796     23818.00    279330.00 
    9662.037     20132.00    279459.00 
    9662.278     17663.00    279468.00 
    9662.521     15966.00    279500.00 
    9662.804     14991.00    279590.00 
    9663.047     14178.00    279537.00 
    9663.288     13325.00    279575.00 
    9663.530     12442.00    279495.00 
    9663.771     11409.00    279529.00 
    9664.015     10674.00    279574.00 
    9664.257     10156.00    279700.00 
    9664.538      9853.00    279738.00 
    9664.781      9830.00    279702.00 
    9665.023     10249.00    279742.00 
    9665.265     10967.00    279608.00 
    9665.508     12029.00    279528.00 
    9665.750     13370.00    279484.00 
    9665.991     14981.00    279545.00 
    9666.274     16999.00    279507.00 
    9666.517     18635.00    279503.00 
    9666.799     20134.00    279531.00 
    9667.042     21322.00    279534.00 
    9667.283     22256.00    279494.00 
    9667.525     22885.00    279504.00 
    9667.769     23050.00    279488.00 
    9668.011     22912.00    279330.00 
    9668.293     22538.00    279397.00 
    9668.536     21996.00    279209.00 
    9668.778     21356.00    278914.00 
    9669.060     20971.00    279033.00 
    9669.264     20738.00    278752.00 
    9669.505     20797.00    279035.00 
    9669.787     21005.00    278952.00 
    9669.989     21317.00    278987.00 
    9670.272     21707.00    279238.00 
    9670.555     21947.00    279335.00 
    9670.757     22011.00    279361.00 
    9671.040     21910.00    279396.00 
    9671.242     21605.00    279470.00 
    9671.526     21133.00    279491.00 
    9671.769     20659.00    279447.00 
    9672.010     20235.00    279452.00 
    9672.252     19861.00    279449.00 
    9672.536     19544.00    279405.00 
    9672.738     19281.00    279302.00 
    9673.021     19072.00    279262.00 
    9673.304     18981.00    279281.00 
    9673.506     18963.00    279371.00 
    9673.790     18995.00    279407.00 
    9674.032     19076.00    279503.00 
    9674.274     19226.00    279516.00 
    9674.517     19388.00    279596.00 
    9674.800     19554.00    279648.00 
    9675.042     19734.00    279747.00 
    9675.244     19873.00    279647.00 
    9675.528     19996.00    279555.00 
    9675.771     20096.00    279430.00 
    9676.055     20156.00    279426.00 
    9676.297     20175.00    279421.00 
    9676.539     20168.00    279393.00 
    9676.781     20171.00    279351.00 
    9677.025     20168.00    279278.00 
    9677.268     20202.00    279036.00 
    9677.552     20273.00    278914.00 
    9677.794     20402.00    279148.00 
    9678.036     20529.00    278949.00 
    9678.279     20740.00    278886.00 
    9678.522     21048.00    279138.00 
    9678.806     21342.00    279125.00 
    9679.048     21689.00    279009.00 
    9679.292     22039.00    279111.00 
    9679.534     22425.00    279268.00 
    9679.776     22827.00    279162.00 
    9680.021     23163.00    279076.00 
    9680.304     23431.00    278977.00 
    9680.546     23717.00    279159.00 
    9680.748     23921.00    279159.00 
    9681.032     24108.00    279121.00 
    9681.275     24259.00    279068.00 
    9681.520     24364.00    279129.00 
    9681.762     24431.00    279297.00 
    9682.044     24451.00    279413.00 
    9682.288     24437.00    279411.00 
    9682.491     24357.00    279413.00 
    9682.773     24239.00    279381.00 
    9683.017     24113.00    279452.00 
    9683.301     23949.00    279367.00 
    9683.543     23771.00    279412.00 
    9683.788     23608.00    279415.00 
    9683.990     23419.00    279441.00 
    9684.800     22837.00    279246.00 
    9685.610     22349.00    279262.00 
    9686.421     21926.00    279360.00 
    9687.232     21508.00    279336.00 
    9688.084     21235.00    279339.00 
    9688.896     21250.00    279364.00 
    9689.787     21623.00    279350.00 
    9690.640     22311.00    279391.00 
    9691.531     23305.00    279296.00 
    9692.425     24541.00    279360.00 
    9693.318     25747.00    279313.00 
    9694.253     26641.00    279310.00 
    9695.187     27097.00    279210.00 
    9696.121     27370.00    279170.00 
    9697.096     27643.00    279044.00 
    9698.071     27952.00    278732.00 
    9699.047     28257.00    279242.00 
    9700.021     28247.00    279302.00 
    9701.039     28029.00    279054.00 
    9702.056     27698.00    278917.00 
    9703.072     27268.00    278995.00 
    9704.131     26582.00    279081.00 
    9705.189     25795.00    279048.00 
    9706.247     24876.00    279000.00 
    9707.347     23824.00    278961.00 
    9708.404     23070.00    279013.00 
    9709.545     22520.00    278034.00 
    9710.646     22390.00    277887.00 
    9711.787     22653.00    279751.00 
    9712.929     22741.00    279462.00 
    9714.070     22757.00    279229.00 
    9715.212     22634.00    279255.00 
    9716.354     22345.00    279175.00 
    9717.579     21789.00    278812.00 
    9718.803     21101.00    278617.00 
    9720.028     20479.00    278720.00 
    9721.253     19977.00    278652.00 
    9722.478     19628.00    278689.00 
    9723.704     19439.00    278817.00 
    9724.970     19350.00    279182.00 
    9726.237     19354.00    279138.00 
    9727.506     19444.00    278385.00 
    9728.855     19626.00    276045.00 
    9730.124     20398.00    280221.00 
    9731.475     20989.00    280708.00 
    9732.783     21465.00    280399.00 
    9734.176     21952.00    279877.00 
    9735.527     22382.00    279561.00 
    9736.880     22823.00    279059.00 
    9738.231     23202.00    278718.00 
    9739.625     23585.00    278774.00 
    9741.061     23824.00    278543.00 
    9742.496     24154.00    278764.00 
    9743.933     24496.00    278618.00 
    9745.368     24890.00    278593.00 
    9746.806     25262.00    278647.00 
    9748.283     25637.00    279024.00 
    9749.804     25785.00    278968.00 
    9751.201     25782.00    279173.00 
    9752.804     25652.00    279042.00 
    9754.244     25434.00    278913.00 
    9755.807     25223.00    278929.00 
    9757.370     25047.00    278964.00 
    9758.852     24977.00    278767.00 
    9760.416     25087.00    278749.00 
    9762.021     25323.00    278620.00 
    9763.671     25557.00    278563.00 
    9765.277     25700.00    278538.00 
    9766.885     25694.00    278601.00 
    9768.494     25504.00    278373.00 
    9770.103     25143.00    278374.00 
    9771.754     24668.00    278191.00 
    9773.487     23904.00    276896.00 
    9775.098     22953.00    273225.00 
    9776.832     23038.00    281972.00 
    9778.527     22564.00    280927.00 
    9780.223     22345.00    279938.00 
    9781.959     22289.00    279389.00 
    9783.654     22192.00    278902.00 
    9785.477     22045.00    277850.00 
    9787.174     22038.00    279087.00 
    9788.995     21913.00    278976.00 
    9790.776     21944.00    278875.00 
    9792.395     22135.00    278618.00 
    9794.384     22620.00    278760.00 
    9796.208     23055.00    278630.00 
    9797.994     23502.00    278800.00 
    9799.901     23883.00    278353.00 
    9801.771     24211.00    277870.00 
    9803.641     24761.00    278978.00 
    9805.510     25071.00    278950.00 
    9807.382     25260.00    278715.00 
    9809.295     25377.00    278682.00 
    9811.209     25427.00    278521.00 
    9813.124     25438.00    278565.00 
    9815.122     25397.00    278652.00 
    9817.039     25283.00    278618.00 
    9819.039     25093.00    278573.00 
    9820.957     24975.00    278444.00 
    9822.958     24989.00    278446.00 
    9824.963     25151.00    278360.00 
    9827.007     25380.00    278217.00 
    9829.011     25454.00    277184.00 
    9831.060     25664.00    278483.00 
    9833.149     25708.00    278351.00 
    9835.239     25736.00    278232.00 
    9837.248     25841.00    278330.00 
    9839.340     25934.00    278199.00 
    9841.476     26137.00    278339.00 
    9843.570     26302.00    278366.00 
    9845.707     26315.00    278326.00 
    9847.846     26055.00    275659.00 
    9849.984     26143.00    277998.00 
    9852.208     26222.00    280612.00 
    9854.391     25944.00    279924.00 
    9856.575     25674.00    279451.00 
    9858.761     25424.00    279177.00 
    9860.947     25229.00    278947.00 
    9863.176     25009.00    278850.00 
    9865.405     24860.00    278761.00 
    9867.637     24874.00    278582.00 
    9869.954     24990.00    278417.00 
    9872.187     25162.00    278587.00 
    9874.505     25311.00    278361.00 
    9876.782     25451.00    278406.00 
    9879.103     25465.00    277519.00 
    9881.384     25711.00    278737.00 
    9883.749     25847.00    278701.00 
    9886.073     26001.00    278378.00 
    9888.440     26288.00    278522.00 
    9890.810     26613.00    278398.00 
    9893.179     26825.00    277622.00 
    9895.634     27209.00    278635.00 
    9898.049     27392.00    278354.00 
    9900.464     27553.00    278302.00 
    9902.882     27574.00    277987.00 
    9905.300     27604.00    278392.00 
    9907.803     27536.00    278130.00 
    9910.268     27544.00    278048.00 
    9912.730     27572.00    277872.00 
    9915.239     27671.00    277982.00 
    9917.750     27737.00    277764.00 
    9920.303     27677.00    276490.00 
    9922.771     27900.00    278163.00 
    9925.286     27974.00    278159.00 
    9927.842     27989.00    278089.00 
    9930.444     28014.00    278199.00 
    9932.961     28044.00    278097.00 
    9935.607     28114.00    278202.00 
    9938.214     28183.00    278303.00 
    9940.776     28284.00    278398.00 
    9943.471     28403.00    278768.00 
    9946.038     28509.00    278741.00 
    9948.691     28569.00    278612.00 
    9951.391     28625.00    278609.00 
    9954.089     28638.00    278571.00 
    9956.791     28648.00    278714.00 
    9959.450     28599.00    278698.00 
    9962.153     28607.00    278415.00 
    9964.860     28702.00    278622.00 
    9967.653     28736.00    278452.00 
    9970.448     28785.00    278364.00 
    9973.157     28862.00    278349.00 
    9975.955     28880.00    277958.00 
    9978.669     28999.00    278062.00 
    9981.513     29095.00    277737.00 
    9984.272     28825.00    274007.00 
    9987.163     29603.00    280347.00 
    9989.969     29620.00    279537.00 
    9992.819     29716.00    279116.00 
    9995.714     29786.00    278415.00 
    9998.569     29940.00    278339.00 
   10001.420     30034.00    277783.00 
   10004.330     30217.00    277611.00 
   10007.270     30511.00    278789.00 
   10010.130     30654.00    278630.00 
   10013.120     30769.00    278231.00 
   10016.030     30918.00    278377.00 
   10018.980     31006.00    278247.00 
   10021.980     31113.00    278186.00 
   10024.940     31235.00    278258.00 
   10027.900     31307.00    278105.00 
   10030.940     31375.00    277887.00 
   10033.950     31476.00    277972.00 
   10036.960     31527.00    278040.00 
   10040.010     31569.00    278005.00 
   10043.060     31626.00    278125.00 
   10046.160     31659.00    277972.00 
   10049.180     31723.00    278008.00 
   10052.280     31778.00    277963.00 
   10055.390     31839.00    277927.00 
   10058.500     31937.00    277867.00 
   10061.600     32017.00    277893.00 
   10064.800     32120.00    277853.00 
   10068.000     32207.00    277611.00 
   10071.120     32330.00    278093.00 
   10074.280     32420.00    278100.00 
   10077.450     32491.00    278016.00 
   10080.660     32617.00    278284.00 
   10083.870     32715.00    278355.00 
   10087.080     32826.00    278415.00 
   10090.300     32952.00    278468.00 
   10093.560     33031.00    278525.00 
   10096.820     33148.00    278370.00 
   10100.090     33303.00    278461.00 
   10103.400     33432.00    278255.00 
   10106.720     33524.00    278005.00 
   10110.040     33710.00    278483.00 
   10113.350     33812.00    278258.00 
   10116.680     33943.00    278261.00 
   10120.000     34016.00    278046.00 
   10123.370     34173.00    278117.00 
   10126.740     34276.00    278024.00 
   10130.160     34415.00    278068.00 
   10133.500     34571.00    277985.00 
   10136.960     34715.00    277962.00 
   10140.300     34870.00    277942.00 
   10143.780     35020.00    277960.00 
   10147.250     35149.00    277999.00 
   10150.640     35260.00    277948.00 
   10154.120     35370.00    277840.00 
   10157.600     35520.00    277794.00 
   10161.180     35648.00    277986.00 
   10164.620     35719.00    277861.00 
   10168.110     35827.00    277937.00 
   10171.650     35883.00    277694.00 
   10175.240     35956.00    277724.00 
   10178.730     36039.00    277706.00 
   10182.370     36143.00    277703.00 
   10185.870     36222.00    277295.00 
   10189.510     36404.00    277920.00 
   10193.060     36485.00    277707.00 
   10196.710     36547.00    277503.00 
   10200.310     36505.00    276550.00 
   10203.960     36786.00    277184.00 
   10207.660     37119.00    279094.00 
