#XDI/1.1  GSE/1.0
# Column.1: energy eV
# Column.2: itrans
# Column.3: i0
# Scan.end_time: 2006-12-17 07:14:01
# Scan.start_time: 2006-12-17 06:55:27
# Element.symbol:  Zn
# Element.edge:  K
# Mono.d_spacing:  3.13555
# Mono.name: Si 111
# Sample.name: sphalerite
# Sample.formula: ZnS
# Sample.prep: powder on tape, many layers
# Sample.temperature: room temperature
# Beamline.Name:  13-BM-D
# Beamline.xray_source:  bending magnet
# Beamline.collimation: none
# Beamline.focusing: no
# Beamline.harmonic_rejection: Rh-coated mirror, detuned
# Beamline.Storage_Ring_Current: 93.6814 mA
# Facility.name: APS
# Facility.energy: 7.00 GeV
# Facility.xray_source: APS bending magnet
# Detector.I0: 10 nA/V 10 cm N2
# Detector.I1: 2 nA/V 10 cm Ar (?)
# ScanParameters.E0: 9659.00
# ScanParameters.Legend: Start       Stop       Step       Npts       Time   Kspace?
# ScanParameters.Region1: -200.00    -10.000     5.0000     39.000     2.0000   0
# ScanParameters.Region2: -10.000     25.000    0.25000     141.00     2.0000   0
# ScanParameters.Region3: 2.5616     12.000   0.039993     237.00     2.0000   1
#-------------------------
#  energy  itrans  i0
    9459.017    213922.00    271176.00
    9463.925    211490.00    267546.00
    9468.799    209877.00    264857.00
    9473.986    209510.00    263688.00
    9479.026    209203.00    262708.00
    9483.994    209202.00    262021.00
    9489.005    209485.00    261575.00
    9494.022    209968.00    261436.00
    9499.046    210401.00    261297.00
    9503.995    210916.00    261193.00
    9509.027    211244.00    261002.00
    9513.989    211804.00    260937.00
    9518.954    212470.00    261038.00
    9524.005    213045.00    261032.00
    9529.020    213770.00    261150.00
    9534.001    214219.00    261117.00
    9538.988    214670.00    260916.00
    9544.021    215222.00    260982.00
    9549.019    215787.00    261015.00
    9554.021    216660.00    261195.00
    9558.990    216937.00    261022.00
    9564.006    217641.00    261191.00
    9569.024    218224.00    261187.00
    9574.010    217178.00    259323.00
    9579.000    219585.00    261463.00
    9583.996    220910.00    262359.00
    9588.997    221152.00    262015.00
    9594.004    221773.00    262069.00
    9599.016    222004.00    261794.00
    9603.993    222283.00    261566.00
    9609.016    222558.00    261480.00
    9614.004    222967.00    261441.00
    9618.996    223033.00    261311.00
    9623.995    223287.00    261301.00
    9628.999    223320.00    261292.00
    9634.009    222387.00    260349.00
    9639.023    222670.00    261465.00
    9644.002    220985.00    261238.00
    9649.027    217439.00    261150.00
    9649.269    217387.00    261506.00
    9649.510    217534.00    261940.00
    9649.752    217257.00    262046.00
    9649.993    217202.00    262355.00
    9650.275    216888.00    262355.00
    9650.557    216490.00    262295.00
    9650.797    216329.00    262510.00
    9651.040    215790.00    262403.00
    9651.280    215266.00    262221.00
    9651.521    214899.00    262382.00
    9651.805    214252.00    262211.00
    9652.045    213872.00    262355.00
    9652.246    213164.00    262127.00
    9652.529    212678.00    262288.00
    9652.810    211848.00    262170.00
    9653.011    211310.00    262332.00
    9653.252    210473.00    262151.00
    9653.535    209867.00    262316.00
    9653.815    208968.00    262373.00
    9654.059    208176.00    262377.00
    9654.300    207434.00    262553.00
    9654.501    206635.00    262725.00
    9654.742    205617.00    262787.00
    9655.024    204403.00    262982.00
    9655.306    203404.00    263200.00
    9655.507    201955.00    263182.00
    9655.790    200536.00    263220.00
    9656.031    199103.00    263331.00
    9656.314    197065.00    263123.00
    9656.556    195308.00    263240.00
    9656.757    193362.00    263198.00
    9656.998    190774.00    262967.00
    9657.280    188118.00    262897.00
    9657.522    184531.00    262827.00
    9657.805    180878.00    262729.00
    9658.006    176616.00    262513.00
    9658.287    172133.00    262545.00
    9658.489    166877.00    262561.00
    9658.812    159682.00    262258.00
    9659.054    152597.00    262211.00
    9659.296    144604.00    262325.00
    9659.498    135191.00    262116.00
    9659.739    124712.00    262294.00
    9660.021    109950.00    262114.00
    9660.304     96459.00    262345.00
    9660.545     82661.00    262212.00
    9660.788     69332.00    262343.00
    9661.029     57348.00    262455.00
    9661.271     45713.00    262256.00
    9661.554     38292.00    262339.00
    9661.756     33149.00    262406.00
    9662.037     29579.00    262285.00
    9662.278     27237.00    262401.00
    9662.521     25510.00    262530.00
    9662.804     24266.00    262477.00
    9663.047     23055.00    262423.00
    9663.248     21775.00    262407.00
    9663.490     20464.00    262607.00
    9663.771     19145.00    262668.00
    9664.055     18292.00    262646.00
    9664.297     17771.00    262709.00
    9664.498     17655.00    262726.00
    9664.741     18006.00    262704.00
    9665.063     19038.00    262730.00
    9665.265     20415.00    262667.00
    9665.548     22304.00    262706.00
    9665.790     24540.00    262701.00
    9665.991     26901.00    262730.00
    9666.274     29662.00    262686.00
    9666.517     31722.00    262692.00
    9666.759     33507.00    262684.00
    9667.002     34820.00    262599.00
    9667.283     35712.00    262657.00
    9667.525     36169.00    262541.00
    9667.769     36102.00    262524.00
    9668.051     35647.00    262431.00
    9668.293     34949.00    262451.00
    9668.536     34224.00    262611.00
    9668.778     33524.00    262646.00
    9669.020     33176.00    262699.00
    9669.304     33126.00    262676.00
    9669.545     33397.00    262682.00
    9669.787     33804.00    262658.00
    9670.031     34233.00    262730.00
    9670.272     34642.00    262656.00
    9670.515     34825.00    262662.00
    9670.799     34710.00    262696.00
    9671.000     34388.00    262663.00
    9671.242     33838.00    262607.00
    9671.526     33149.00    262603.00
    9671.809     32545.00    262587.00
    9672.050     31982.00    262564.00
    9672.294     31515.00    262569.00
    9672.496     31161.00    262508.00
    9672.778     30888.00    262509.00
    9673.021     30680.00    262534.00
    9673.304     30634.00    262584.00
    9673.506     30677.00    262747.00
    9673.790     30798.00    262814.00
    9673.992     30976.00    262905.00
    9674.274     31235.00    262894.00
    9674.517     31452.00    262808.00
    9674.800     31688.00    262726.00
    9675.002     31877.00    262642.00
    9675.285     32060.00    262663.00
    9675.528     32228.00    262597.00
    9675.811     32316.00    262632.00
    9676.055     32341.00    262606.00
    9676.297     32362.00    262618.00
    9676.539     32337.00    262564.00
    9676.741     32304.00    262442.00
    9677.025     32317.00    262323.00
    9677.308     32399.00    262217.00
    9677.552     32590.00    262417.00
    9677.794     32789.00    262421.00
    9678.036     33029.00    262349.00
    9678.238     33347.00    262319.00
    9678.563     33780.00    262408.00
    9678.806     34262.00    262510.00
    9679.048     34708.00    262559.00
    9679.292     35236.00    262627.00
    9679.534     35721.00    262640.00
    9679.776     36272.00    262646.00
    9680.061     36642.00    262591.00
    9680.264     36975.00    262594.00
    9680.546     37261.00    262595.00
    9680.790     37510.00    262506.00
    9680.992     37708.00    262484.00
    9681.275     37864.00    262490.00
    9681.560     37978.00    262510.00
    9681.802     38012.00    262547.00
    9682.044     37978.00    262500.00
    9682.288     37908.00    262564.00
    9682.531     37824.00    262634.00
    9682.773     37658.00    262688.00
    9683.059     37454.00    262699.00
    9683.301     37256.00    262689.00
    9683.543     37028.00    262688.00
    9683.746     36816.00    262700.00
    9683.990     36582.00    262731.00
    9684.800     35821.00    262541.00
    9685.610     35157.00    262355.00
    9686.421     34549.00    262209.00
    9687.192     34047.00    262263.00
    9688.084     33782.00    262437.00
    9688.896     33858.00    262279.00
    9689.787     34429.00    262242.00
    9690.640     35426.00    262290.00
    9691.531     36834.00    262391.00
    9692.425     38480.00    262403.00
    9693.318     39988.00    262373.00
    9694.253     41014.00    262320.00
    9695.187     41509.00    262196.00
    9696.121     41893.00    262355.00
    9697.096     42305.00    262378.00
    9698.071     42744.00    262305.00
    9699.047     42979.00    262180.00
    9700.021     42942.00    262266.00
    9701.039     42704.00    262384.00
    9702.056     42272.00    262375.00
    9703.072     41640.00    262195.00
    9704.131     40730.00    262141.00
    9705.189     39726.00    262366.00
    9706.247     38469.00    262242.00
    9707.347     37098.00    262047.00
    9708.404     36139.00    262046.00
    9709.545     35462.00    261044.00
    9710.646     35504.00    261562.00
    9711.787     35832.00    263026.00
    9712.929     35941.00    262633.00
    9714.070     35933.00    262487.00
    9715.212     35711.00    262345.00
    9716.395     35261.00    262120.00
    9717.579     34545.00    262059.00
    9718.803     33669.00    262069.00
    9720.028     32806.00    261966.00
    9721.253     32214.00    262081.00
    9722.478     31752.00    261909.00
    9723.704     31490.00    262033.00
    9724.970     31360.00    261920.00
    9726.278     31396.00    261966.00
    9727.546     31538.00    261351.00
    9728.855     31783.00    259196.00
    9730.124     32909.00    263308.00
    9731.475     33706.00    263695.00
    9732.783     34286.00    263157.00
    9734.176     34895.00    262660.00
    9735.487     35447.00    262531.00
    9736.880     36088.00    262406.00
    9738.231     36628.00    262354.00
    9739.625     37130.00    262406.00
    9741.021     37527.00    262348.00
    9742.291     37834.00    262128.00
    9743.892     38357.00    262162.00
    9745.368     38904.00    261956.00
    9747.011     39458.00    262120.00
    9748.283     39796.00    262264.00
    9749.804     39962.00    262109.00
    9751.242     39861.00    261930.00
    9752.804     39706.00    262189.00
    9754.244     39414.00    262033.00
    9755.807     39152.00    262002.00
    9757.370     38961.00    262089.00
    9758.893     38902.00    261915.00
    9760.457     39092.00    261990.00
    9762.021     39417.00    261913.00
    9763.671     39728.00    261918.00
    9765.236     39884.00    261835.00
    9766.885     39870.00    261918.00
    9768.494     39610.00    261748.00
    9770.103     39106.00    261684.00
    9771.754     38473.00    261450.00
    9773.487     37402.00    260042.00
    9775.098     36164.00    257150.00
    9776.832     36507.00    265135.00
    9778.527     35858.00    263928.00
    9780.223     35595.00    263133.00
    9781.959     35466.00    262638.00
    9783.654     35397.00    262359.00
    9785.477     35159.00    261234.00
    9787.174     35184.00    262560.00
    9788.995     35093.00    262465.00
    9790.776     35127.00    262205.00
    9792.561     35472.00    262081.00
    9794.384     36067.00    262103.00
    9796.167     36614.00    261944.00
    9797.994     37220.00    261881.00
    9799.901     37710.00    261583.00
    9801.771     38259.00    261446.00
    9803.641     38802.00    261870.00
    9805.510     39290.00    262095.00
    9807.382     39542.00    261859.00
    9809.295     39750.00    261874.00
    9811.209     39779.00    261760.00
    9813.124     39781.00    261760.00
    9815.122     39699.00    261800.00
    9817.039     39558.00    261744.00
    9819.039     39342.00    261754.00
    9820.957     39226.00    261823.00
    9822.958     39269.00    261753.00
    9824.963     39453.00    261674.00
    9827.007     39746.00    261688.00
    9829.011     39793.00    260650.00
    9831.060     40138.00    262052.00
    9833.149     40144.00    261808.00
    9835.239     40217.00    261852.00
    9837.248     40292.00    261615.00
    9839.340     40479.00    261549.00
    9841.517     40706.00    261656.00
    9843.611     40874.00    261669.00
    9845.707     40881.00    261421.00
    9847.846     40365.00    258441.00
    9849.984     40815.00    261873.00
    9852.208     40788.00    263489.00
    9854.391     40426.00    262913.00
    9856.575     40099.00    262543.00
    9858.761     39778.00    262280.00
    9860.947     39495.00    262255.00
    9863.176     39248.00    262069.00
    9865.405     39084.00    261894.00
    9867.637     39163.00    262006.00
    9869.954     39287.00    261711.00
    9872.229     39568.00    261993.00
    9874.464     39728.00    261750.00
    9876.782     39889.00    261713.00
    9879.103     39923.00    260825.00
    9881.425     40249.00    262024.00
    9883.749     40427.00    261956.00
    9886.073     40691.00    261862.00
    9888.440     41056.00    261821.00
    9890.810     41382.00    261521.00
    9893.179     41689.00    261092.00
    9895.592     42166.00    262036.00
    9898.006     42424.00    261718.00
    9900.422     42621.00    261694.00
    9902.882     42685.00    261688.00
    9905.300     42662.00    261497.00
    9907.761     42662.00    261577.00
    9910.225     42694.00    261540.00
    9912.688     42812.00    261611.00
    9915.239     42933.00    261652.00
    9917.750     43124.00    261577.00
    9920.260     43053.00    260313.00
    9922.771     43376.00    262077.00
    9925.286     43415.00    261860.00
    9927.842     43459.00    261773.00
    9930.400     43486.00    261667.00
    9932.961     43516.00    261509.00
    9935.564     43599.00    261508.00
    9938.214     43753.00    261718.00
    9940.776     43827.00    261553.00
    9943.429     43929.00    261723.00
    9946.038     44048.00    261719.00
    9948.691     44186.00    261550.00
    9951.391     44246.00    261639.00
    9954.047     44262.00    261617.00
    9956.747     44196.00    261540.00
    9959.450     44220.00    261570.00
    9962.153     44224.00    261525.00
    9964.860     44265.00    261486.00
    9967.653     44393.00    261546.00
    9970.405     44510.00    261617.00
    9973.157     44582.00    261482.00
    9975.912     44666.00    261288.00
    9978.712     44864.00    261589.00
    9981.470     44961.00    261243.00
    9984.272     44661.00    257934.00
    9987.120     45714.00    263576.00
    9989.926     45669.00    262741.00
    9992.776     45752.00    262305.00
    9995.628     45880.00    261912.00
    9998.524     46078.00    261614.00
   10001.420     46229.00    261094.00
   10004.330     46396.00    260787.00
   10007.230     46848.00    262060.00
   10010.130     47008.00    261918.00
   10012.860     47086.00    261740.00
   10016.070     47226.00    261675.00
   10018.940     47398.00    261529.00
   10021.980     47534.00    261506.00
   10024.900     47666.00    261546.00
   10027.940     47783.00    261422.00
   10030.900     47888.00    261241.00
   10033.950     48008.00    261359.00
   10036.960     48125.00    261438.00
   10039.830     48208.00    261449.00
   10043.110     48290.00    261448.00
   10046.120     48394.00    261451.00
   10049.180     48482.00    261508.00
   10052.280     48583.00    261449.00
   10055.210     48676.00    261376.00
   10058.500     48733.00    261478.00
   10061.600     48892.00    261574.00
   10064.800     48951.00    261427.00
   10067.960     49028.00    261338.00
   10071.120     49206.00    261394.00
   10074.280     49348.00    261417.00
   10077.450     49468.00    261464.00
   10080.660     49595.00    261354.00
   10083.870     49757.00    261546.00
   10087.130     49881.00    261473.00
   10090.340     50020.00    261374.00
   10093.600     50188.00    261403.00
   10096.870     50310.00    261407.00
   10100.130     50462.00    261318.00
   10103.360     50651.00    261209.00
   10106.720     50815.00    261042.00
   10110.040     51028.00    261325.00
   10113.350     51171.00    261295.00
   10116.680     51300.00    261321.00
   10120.000     51461.00    261357.00
   10123.370     51696.00    261356.00
   10126.740     51875.00    261350.00
   10130.160     51992.00    261237.00
   10133.500     52196.00    261298.00
   10136.920     52423.00    261431.00
   10140.300     52510.00    261320.00
   10143.730     52757.00    261251.00
   10147.250     52913.00    261294.00
   10150.680     53114.00    261266.00
   10154.170     53221.00    261259.00
   10157.650     53355.00    261205.00
   10161.130     53542.00    261235.00
   10164.620     53687.00    261160.00
   10168.160     53821.00    261287.00
   10171.650     53906.00    261202.00
   10175.190     53973.00    261054.00
   10178.730     54160.00    261087.00
   10182.370     54300.00    261028.00
   10185.870     54391.00    260607.00
   10189.510     54528.00    261265.00
   10193.060     54661.00    261154.00
   10196.710     54839.00    261067.00
   10200.310     54756.00    259930.00
   10204.010     55237.00    261430.00
   10207.660     55533.00    262131.00
