#XDI/1.1  GSE/1.0
# Column.1: energy eV
# Column.2: itrans
# Column.3: i0
# Scan.end_time: 2006-12-17 09:17:03
# Scan.start_time: 2006-12-17 08:58:22
# Element.symbol:  Zn
# Element.edge:  K
# Mono.d_spacing:  3.13555
# Mono.name: Si 111
# Sample.name: zinc sulfate
# Sample.formula: ZnSO4
# Sample.prep: powder on tape, many layers
# Sample.temperature: room temperature
# Beamline.Name:  13-BM-D
# Beamline.xray_source:  bending magnet
# Beamline.collimation: none
# Beamline.focusing: no
# Beamline.harmonic_rejection: Rh-coated mirror, detuned
# Beamline.Storage_Ring_Current: 101.087 mA
# Facility.name: APS
# Facility.energy: 7.00 GeV
# Facility.xray_source: APS bending magnet
# Detector.I0: 10 nA/V 10 cm N2
# Detector.I1: 2 nA/V 10 cm Ar (?)
# ScanParameters.E0: 9659.00
# ScanParameters.Legend: Start       Stop       Step       Npts       Time   Kspace?
# ScanParameters.Region1: -200.00    -10.000     5.0000     39.000     2.0000   0
# ScanParameters.Region2: -10.000     25.000    0.25000     141.00     2.0000   0
# ScanParameters.Region3: 2.5616     12.000   0.039993     237.00     2.0000   1
#-------------------------
#  energy  itrans  i0
    9459.017    109749.00    293184.00
    9463.885    108327.00    288323.00
    9468.992    107789.00    285918.00
    9474.180    107603.00    284455.00
    9479.026    107533.00    283377.00
    9483.994    107688.00    282745.00
    9489.005    107856.00    282224.00
    9494.022    108143.00    282043.00
    9499.006    108471.00    281999.00
    9503.995    108836.00    281874.00
    9509.027    109139.00    281758.00
    9513.989    109523.00    281788.00
    9519.032    109914.00    281792.00
    9524.005    110268.00    281838.00
    9529.020    110600.00    281899.00
    9534.001    110908.00    281795.00
    9538.988    111201.00    281652.00
    9544.021    111501.00    281528.00
    9549.019    111849.00    281624.00
    9554.021    112192.00    281537.00
    9558.990    112535.00    281516.00
    9564.006    112910.00    281584.00
    9569.024    113027.00    281167.00
    9574.010    112138.00    279260.00
    9579.000    113747.00    281324.00
    9583.996    114443.00    282127.00
    9588.997    114723.00    281974.00
    9594.004    114977.00    281827.00
    9599.016    115180.00    281572.00
    9603.993    115457.00    281518.00
    9609.016    115707.00    281634.00
    9614.004    116041.00    281806.00
    9618.996    116217.00    281657.00
    9623.995    116471.00    281806.00
    9628.999    116670.00    281894.00
    9634.009    116178.00    280957.00
    9639.023    116660.00    282297.00
    9644.002    116059.00    282068.00
    9649.027    114791.00    282175.00
    9649.269    114725.00    282364.00
    9649.510    114790.00    282786.00
    9649.752    114821.00    283055.00
    9649.993    114753.00    283167.00
    9650.315    114693.00    283408.00
    9650.557    114601.00    283474.00
    9650.797    114457.00    283482.00
    9650.998    114297.00    283383.00
    9651.280    114145.00    283280.00
    9651.562    113981.00    283235.00
    9651.765    113790.00    283198.00
    9652.045    113705.00    283315.00
    9652.246    113532.00    283369.00
    9652.529    113301.00    283351.00
    9652.771    113057.00    283248.00
    9653.011    112749.00    283021.00
    9653.252    112592.00    283142.00
    9653.535    112399.00    283296.00
    9653.776    112071.00    283179.00
    9654.059    111776.00    283024.00
    9654.260    111568.00    283219.00
    9654.501    111345.00    283361.00
    9654.742    111038.00    283407.00
    9655.024    110516.00    283252.00
    9655.306    110162.00    283202.00
    9655.507    109722.00    283108.00
    9655.790    109377.00    283304.00
    9655.991    109001.00    283387.00
    9656.274    108512.00    283380.00
    9656.556    108019.00    283364.00
    9656.757    107491.00    283317.00
    9656.998    106951.00    283375.00
    9657.280    106351.00    283480.00
    9657.522    105534.00    283512.00
    9657.805    104801.00    283628.00
    9658.006    103961.00    283673.00
    9658.287    103018.00    283515.00
    9658.530    101979.00    283533.00
    9658.812    100636.00    283523.00
    9659.054     99312.00    283457.00
    9659.296     97879.00    283529.00
    9659.498     96237.00    283557.00
    9659.739     94377.00    283611.00
    9660.021     91668.00    283495.00
    9660.304     89049.00    283445.00
    9660.545     86197.00    283441.00
    9660.788     83163.00    283484.00
    9661.029     79906.00    283425.00
    9661.312     75921.00    283366.00
    9661.554     72216.00    283343.00
    9661.796     68378.00    283267.00
    9662.037     64063.00    283194.00
    9662.238     59074.00    283320.00
    9662.521     52777.00    283327.00
    9662.804     46637.00    283360.00
    9663.047     40636.00    283356.00
    9663.248     34794.00    283415.00
    9663.490     29246.00    283372.00
    9663.771     24088.00    283308.00
    9664.055     20504.00    283325.00
    9664.297     17500.00    283180.00
    9664.498     15206.00    283154.00
    9664.741     13305.00    283146.00
    9665.023     11660.00    283301.00
    9665.265     10625.00    283311.00
    9665.548      9862.00    283337.00
    9665.790      9313.00    283271.00
    9665.991      8938.00    283144.00
    9666.274      8598.00    282981.00
    9666.557      8384.00    283018.00
    9666.799      8171.00    283173.00
    9667.002      7960.00    283071.00
    9667.283      7755.00    283015.00
    9667.525      7513.00    283093.00
    9667.809      7325.00    283313.00
    9668.051      7158.00    283348.00
    9668.253      7059.00    283371.00
    9668.536      7041.00    283402.00
    9668.778      7177.00    283414.00
    9669.020      7454.00    283491.00
    9669.264      7867.00    283431.00
    9669.545      8385.00    283514.00
    9669.747      9018.00    283609.00
    9670.031      9779.00    283718.00
    9670.272     10737.00    283578.00
    9670.555     11637.00    283500.00
    9670.799     12572.00    283465.00
    9671.000     13524.00    283448.00
    9671.242     14500.00    283440.00
    9671.526     15554.00    283406.00
    9671.809     16368.00    283357.00
    9672.050     17191.00    283327.00
    9672.294     17912.00    283225.00
    9672.496     18616.00    283205.00
    9672.778     19331.00    283270.00
    9673.021     20153.00    283284.00
    9673.304     20795.00    283229.00
    9673.506     21438.00    283040.00
    9673.790     22055.00    282879.00
    9673.992     22669.00    283057.00
    9674.274     23249.00    283044.00
    9674.517     23608.00    282832.00
    9674.800     23978.00    282879.00
    9675.002     24287.00    282901.00
    9675.285     24478.00    282695.00
    9675.528     24683.00    282986.00
    9675.811     24789.00    282810.00
    9676.013     24848.00    282851.00
    9676.297     24918.00    283067.00
    9676.539     24930.00    282927.00
    9676.781     24967.00    282911.00
    9677.025     25033.00    283098.00
    9677.308     25108.00    283195.00
    9677.552     25191.00    283230.00
    9677.754     25275.00    283195.00
    9678.036     25392.00    283299.00
    9678.238     25474.00    283352.00
    9678.522     25569.00    283413.00
    9678.806     25669.00    283528.00
    9679.048     25758.00    283426.00
    9679.292     25836.00    283373.00
    9679.534     25954.00    283470.00
    9679.776     26048.00    283565.00
    9680.061     26128.00    283585.00
    9680.304     26223.00    283541.00
    9680.546     26258.00    283398.00
    9680.790     26328.00    283370.00
    9681.032     26401.00    283309.00
    9681.275     26509.00    283305.00
    9681.560     26609.00    283269.00
    9681.802     26708.00    283265.00
    9682.044     26815.00    283300.00
    9682.288     26929.00    283212.00
    9682.491     27057.00    283230.00
    9682.773     27237.00    283306.00
    9683.059     27387.00    283306.00
    9683.301     27539.00    283284.00
    9683.543     27704.00    283327.00
    9683.746     27896.00    283297.00
    9683.990     28054.00    283233.00
    9684.800     28818.00    283186.00
    9685.610     29627.00    283147.00
    9686.421     30458.00    283119.00
    9687.232     31260.00    282916.00
    9688.084     32020.00    282801.00
    9688.896     32645.00    282982.00
    9689.787     33265.00    282932.00
    9690.640     33725.00    282751.00
    9691.531     34108.00    282889.00
    9692.425     34345.00    282975.00
    9693.318     34282.00    282682.00
    9694.253     33980.00    282850.00
    9695.187     33365.00    282828.00
    9696.121     32434.00    282832.00
    9697.096     31251.00    282882.00
    9698.071     29801.00    282927.00
    9699.047     28277.00    282875.00
    9700.021     26862.00    282872.00
    9701.039     25391.00    283026.00
    9702.056     24150.00    282986.00
    9703.072     23182.00    282934.00
    9704.131     22333.00    282852.00
    9705.189     21766.00    282967.00
    9706.247     21332.00    282980.00
    9707.347     21005.00    282790.00
    9708.404     20840.00    282692.00
    9709.505     20720.00    281685.00
    9710.646     20848.00    282194.00
    9711.787     21091.00    283764.00
    9712.929     21184.00    283439.00
    9714.070     21262.00    283121.00
    9715.212     21295.00    282793.00
    9716.395     21308.00    282762.00
    9717.579     21280.00    282687.00
    9718.763     21241.00    282571.00
    9719.986     21238.00    282838.00
    9721.212     21255.00    282707.00
    9722.437     21427.00    282812.00
    9723.704     21728.00    282753.00
    9724.970     22100.00    282598.00
    9726.237     22615.00    282537.00
    9727.546     23059.00    281895.00
    9728.814     23398.00    279591.00
    9730.124     24186.00    284088.00
    9731.475     24647.00    284492.00
    9732.783     24987.00    283810.00
    9734.136     25393.00    283426.00
    9735.527     25733.00    283068.00
    9736.880     26058.00    282835.00
    9738.231     26309.00    282690.00
    9739.625     26523.00    282740.00
    9741.021     26695.00    282567.00
    9742.496     26839.00    282688.00
    9743.933     26902.00    282532.00
    9745.368     26948.00    282597.00
    9746.806     26913.00    282794.00
    9748.283     26846.00    282950.00
    9749.804     26733.00    282992.00
    9751.242     26608.00    283021.00
    9752.599     26466.00    282902.00
    9754.285     26279.00    282799.00
    9755.766     26125.00    282674.00
    9757.370     25992.00    282657.00
    9758.728     25877.00    282485.00
    9760.457     25755.00    282431.00
    9762.021     25714.00    282464.00
    9763.671     25660.00    282325.00
    9765.277     25588.00    282368.00
    9766.885     25521.00    282365.00
    9768.453     25415.00    282281.00
    9770.103     25306.00    282145.00
    9771.754     25190.00    282086.00
    9773.487     24900.00    280646.00
    9775.098     24678.00    277550.00
    9776.832     25294.00    286227.00
    9778.527     25047.00    284878.00
    9780.264     24936.00    284191.00
    9781.959     24819.00    283444.00
    9783.654     24791.00    283032.00
    9785.477     24685.00    281938.00
    9787.174     24794.00    283236.00
    9788.995     24808.00    283095.00
    9790.776     24859.00    283099.00
    9792.561     24902.00    282812.00
    9794.384     24991.00    282682.00
    9796.167     25069.00    282732.00
    9797.994     25182.00    282777.00
    9799.901     25260.00    282220.00
    9801.771     25372.00    281942.00
    9803.641     25602.00    282703.00
    9805.469     25698.00    282544.00
    9807.382     25864.00    282598.00
    9809.254     25974.00    282337.00
    9811.250     26162.00    282416.00
    9813.124     26257.00    282260.00
    9815.122     26400.00    282462.00
    9817.039     26493.00    282320.00
    9819.039     26630.00    282438.00
    9820.957     26675.00    282535.00
    9822.958     26764.00    282538.00
    9824.963     26848.00    282547.00
    9827.049     26947.00    282461.00
    9829.011     26938.00    281245.00
    9831.060     27163.00    282802.00
    9833.106     27181.00    282436.00
    9835.197     27210.00    282357.00
    9837.248     27251.00    282346.00
    9839.340     27213.00    282169.00
    9841.476     27224.00    282133.00
    9843.611     27259.00    282154.00
    9845.707     27245.00    282025.00
    9847.846     26916.00    278709.00
    9849.984     27398.00    282619.00
    9852.208     27537.00    284328.00
    9854.391     27504.00    283653.00
    9856.533     27465.00    283343.00
    9858.761     27443.00    283115.00
    9860.988     27445.00    282978.00
    9863.176     27418.00    282784.00
    9865.405     27446.00    282879.00
    9867.637     27431.00    282603.00
    9869.954     27429.00    282525.00
    9872.229     27437.00    282382.00
    9874.464     27459.00    282408.00
    9876.740     27453.00    282076.00
    9879.103     27425.00    281278.00
    9881.384     27591.00    282505.00
    9883.749     27686.00    282525.00
    9886.073     27744.00    282366.00
    9888.440     27820.00    282386.00
    9890.810     27903.00    282291.00
    9893.221     27923.00    281626.00
    9895.634     28137.00    282828.00
    9898.049     28183.00    282514.00
    9900.464     28278.00    282586.00
    9902.882     28347.00    282463.00
    9905.342     28455.00    282447.00
    9907.761     28526.00    282301.00
    9910.225     28583.00    282362.00
    9912.688     28697.00    282398.00
    9915.239     28780.00    282470.00
    9917.750     28835.00    282226.00
    9920.260     28809.00    280971.00
    9922.771     29076.00    282692.00
    9925.286     29146.00    282549.00
    9927.842     29214.00    282278.00
    9930.400     29255.00    282039.00
    9932.961     29365.00    282023.00
    9935.394     29445.00    282064.00
    9938.170     29549.00    281949.00
    9940.820     29650.00    281983.00
    9943.471     29718.00    281887.00
    9946.038     29778.00    281952.00
    9948.691     29887.00    282081.00
    9951.433     29961.00    282170.00
    9954.132     30033.00    282088.00
    9956.747     30098.00    282183.00
    9959.450     30166.00    282166.00
    9962.153     30232.00    282221.00
    9964.860     30305.00    282381.00
    9967.653     30311.00    282236.00
    9970.405     30400.00    282268.00
    9973.157     30454.00    282191.00
    9975.912     30473.00    281924.00
    9978.712     30554.00    281960.00
    9981.470     30585.00    281757.00
    9984.272     30293.00    278149.00
    9987.120     30989.00    284233.00
    9989.926     30959.00    283529.00
    9992.776     30962.00    283018.00
    9995.628     30984.00    282499.00
    9998.524     31028.00    282420.00
   10001.380     31038.00    281699.00
   10004.370     31107.00    281527.00
   10007.230     31377.00    283004.00
   10010.130     31462.00    282748.00
   10013.120     31502.00    282452.00
   10015.990     31609.00    282590.00
   10018.940     31729.00    282610.00
   10021.980     31812.00    282511.00
   10024.900     31927.00    282520.00
   10027.940     31995.00    282449.00
   10030.900     32065.00    282273.00
   10033.990     32188.00    282278.00
   10036.960     32279.00    282287.00
   10040.010     32355.00    281998.00
   10043.060     32475.00    282161.00
   10046.120     32553.00    282068.00
   10049.220     32605.00    281857.00
   10052.280     32706.00    281764.00
   10055.390     32806.00    281752.00
   10058.500     32873.00    281707.00
   10061.600     32979.00    281644.00
   10064.800     33092.00    281619.00
   10067.960     33150.00    281554.00
   10071.120     33258.00    281650.00
   10074.280     33353.00    281685.00
   10077.450     33431.00    281639.00
   10080.660     33541.00    281693.00
   10083.910     33623.00    281731.00
   10087.130     33742.00    281902.00
   10090.300     33838.00    281961.00
   10093.600     33903.00    281897.00
   10096.820     34009.00    281853.00
   10100.090     34120.00    282051.00
   10103.310     34236.00    282119.00
   10106.720     34253.00    281756.00
   10110.040     34403.00    282276.00
   10113.350     34503.00    282248.00
   10116.680     34548.00    281938.00
   10120.000     34685.00    282149.00
   10123.370     34797.00    282102.00
   10126.740     34894.00    282061.00
   10130.160     34973.00    282015.00
   10133.500     35053.00    281874.00
   10136.920     35148.00    281792.00
   10140.350     35253.00    281714.00
   10143.730     35331.00    281674.00
   10147.250     35432.00    281650.00
   10150.640     35548.00    281722.00
   10154.120     35664.00    281904.00
   10157.650     35750.00    281910.00
   10161.130     35858.00    281872.00
   10164.620     35973.00    281867.00
   10168.160     36084.00    281867.00
   10171.650     36191.00    281747.00
   10175.190     36298.00    281767.00
   10178.730     36425.00    281745.00
   10182.370     36537.00    281778.00
   10185.870     36571.00    281275.00
   10189.510     36781.00    281993.00
   10193.060     36865.00    281898.00
   10196.710     36989.00    281865.00
   10200.310     37028.00    280734.00
   10203.960     37079.00    281961.00
   10207.620     37450.00    282961.00
