#XDI/1.1  GSE/1.0
# Column.1: energy eV
# Column.2: itrans
# Column.3: i0
# Scan.end_time: 2006-12-17 08:12:21
# Scan.start_time: 2006-12-17 07:53:41
# Element.symbol:  Zn
# Element.edge:  K
# Mono.d_spacing:  3.13555
# Mono.name: Si 111
# Sample.name: zinc oxalate
# Sample.formula: ZnC2O4
# Sample.prep: powder on tape, many layers
# Sample.temperature: room temperature
# Beamline.Name:  13-BM-D
# Beamline.xray_source:  bending magnet
# Beamline.collimation: none
# Beamline.focusing: no
# Beamline.harmonic_rejection: Rh-coated mirror, detuned
# Beamline.Storage_Ring_Current: 101.977 mA
# Facility.name: APS
# Facility.energy: 7.00 GeV
# Facility.xray_source: APS bending magnet
# Detector.I0: 10 nA/V 10 cm N2
# Detector.I1: 2 nA/V 10 cm Ar (?)
# ScanParameters.E0: 9659.00
# ScanParameters.Legend: Start       Stop       Step       Npts       Time   Kspace?
# ScanParameters.Region1: -200.00    -10.000     5.0000     39.000     2.0000   0
# ScanParameters.Region2: -10.000     25.000    0.25000     141.00     2.0000   0
# ScanParameters.Region3: 2.5616     12.000   0.039993     237.00     2.0000   1
#-------------------------
#  energy  itrans  i0
    9459.017    389019.00    293508.00
    9464.002    385142.00    289806.00
    9468.992    383250.00    287782.00
    9473.986    382099.00    286574.00
    9479.026    381917.00    285866.00
    9483.994    381872.00    285258.00
    9489.005    382106.00    284823.00
    9494.022    382419.00    284458.00
    9499.006    383052.00    284380.00
    9503.995    383682.00    284214.00
    9508.988    384561.00    284306.00
    9513.989    385128.00    284137.00
    9518.993    385993.00    284232.00
    9524.005    386571.00    284165.00
    9529.020    387331.00    284127.00
    9534.001    387984.00    284071.00
    9538.988    388427.00    283836.00
    9544.021    389332.00    283962.00
    9549.019    389908.00    283739.00
    9554.021    390790.00    283840.00
    9558.990    391477.00    283790.00
    9564.006    392121.00    283753.00
    9569.024    392817.00    283733.00
    9574.010    390706.00    281683.00
    9579.000    394412.00    283834.00
    9583.996    396555.00    284845.00
    9588.997    396991.00    284698.00
    9594.004    397356.00    284495.00
    9599.016    397888.00    284417.00
    9603.993    398412.00    284390.00
    9609.016    398705.00    284136.00
    9614.004    399437.00    284287.00
    9618.996    399838.00    284207.00
    9623.995    399945.00    284074.00
    9628.999    400221.00    284143.00
    9634.009    398975.00    283234.00
    9639.023    400101.00    284376.00
    9644.002    398607.00    284272.00
    9649.027    395464.00    284173.00
    9649.269    395599.00    284503.00
    9649.510    395970.00    284902.00
    9649.752    396168.00    285242.00
    9649.993    396316.00    285490.00
    9650.315    396292.00    285733.00
    9650.517    395998.00    285687.00
    9650.797    395655.00    285613.00
    9651.040    395483.00    285745.00
    9651.280    395461.00    285922.00
    9651.521    395032.00    285904.00
    9651.805    394614.00    285862.00
    9652.045    394137.00    285825.00
    9652.286    393723.00    285868.00
    9652.529    393351.00    285906.00
    9652.771    392690.00    285916.00
    9653.011    392155.00    285819.00
    9653.294    391837.00    285857.00
    9653.535    391249.00    285867.00
    9653.776    390702.00    285950.00
    9654.059    390109.00    285939.00
    9654.260    389402.00    285939.00
    9654.501    388769.00    285960.00
    9654.783    388059.00    286017.00
    9655.064    387156.00    286064.00
    9655.306    386326.00    286095.00
    9655.507    385301.00    286045.00
    9655.790    384417.00    286088.00
    9655.991    383380.00    286123.00
    9656.314    382119.00    286076.00
    9656.556    380910.00    286093.00
    9656.757    379555.00    285972.00
    9656.998    378086.00    285990.00
    9657.280    376498.00    285943.00
    9657.522    374407.00    285961.00
    9657.805    372411.00    285971.00
    9658.006    370024.00    285960.00
    9658.287    367629.00    285928.00
    9658.530    364734.00    285939.00
    9658.812    361030.00    285929.00
    9659.054    357194.00    285865.00
    9659.296    353061.00    285864.00
    9659.538    348340.00    285831.00
    9659.739    343101.00    285843.00
    9660.021    335865.00    285757.00
    9660.304    329027.00    285609.00
    9660.545    322158.00    285497.00
    9660.788    315108.00    285674.00
    9661.029    307698.00    285711.00
    9661.312    298282.00    285505.00
    9661.554    289336.00    285519.00
    9661.796    280245.00    285710.00
    9662.037    269275.00    285753.00
    9662.238    255917.00    285669.00
    9662.521    238559.00    285678.00
    9662.804    221216.00    285701.00
    9663.047    203507.00    285757.00
    9663.248    185633.00    285852.00
    9663.530    168350.00    285875.00
    9663.771    151470.00    285918.00
    9664.055    139185.00    285899.00
    9664.297    128923.00    285955.00
    9664.498    120642.00    285942.00
    9664.781    113560.00    285932.00
    9665.023    106987.00    285993.00
    9665.265    102636.00    286054.00
    9665.548     98925.00    286109.00
    9665.790     95793.00    286104.00
    9665.991     93147.00    286158.00
    9666.314     90329.00    285921.00
    9666.557     88301.00    285903.00
    9666.799     86471.00    285862.00
    9667.002     84870.00    285823.00
    9667.283     83420.00    285749.00
    9667.525     82008.00    285599.00
    9667.769     81009.00    285461.00
    9668.051     80352.00    285560.00
    9668.293     80109.00    285722.00
    9668.536     80337.00    285752.00
    9668.778     81462.00    285788.00
    9669.020     83251.00    285798.00
    9669.264     86041.00    285924.00
    9669.545     89487.00    285980.00
    9669.747     93562.00    285962.00
    9670.031     98157.00    285913.00
    9670.272    104087.00    285899.00
    9670.555    109344.00    285837.00
    9670.757    114803.00    285901.00
    9671.040    119971.00    285885.00
    9671.242    125064.00    285806.00
    9671.526    130176.00    285808.00
    9671.769    133880.00    285790.00
    9672.050    137170.00    285771.00
    9672.294    139886.00    285706.00
    9672.496    142155.00    285513.00
    9672.778    144113.00    285295.00
    9673.021    146209.00    285438.00
    9673.264    147686.00    285400.00
    9673.506    149007.00    285257.00
    9673.790    150452.00    285564.00
    9673.992    151620.00    285449.00
    9674.274    152806.00    285239.00
    9674.517    154126.00    285565.00
    9674.800    155364.00    285672.00
    9675.002    156485.00    285655.00
    9675.285    157589.00    285640.00
    9675.528    159027.00    285730.00
    9675.771    160240.00    285731.00
    9676.055    161544.00    285812.00
    9676.297    162774.00    285815.00
    9676.539    164010.00    285754.00
    9676.741    165351.00    285744.00
    9677.025    166919.00    285714.00
    9677.308    168198.00    285708.00
    9677.552    169333.00    285723.00
    9677.754    170371.00    285712.00
    9678.036    171310.00    285689.00
    9678.279    172079.00    285651.00
    9678.522    172644.00    285492.00
    9678.806    173077.00    285400.00
    9679.048    173439.00    285480.00
    9679.292    173747.00    285663.00
    9679.534    173822.00    285588.00
    9679.776    173765.00    285491.00
    9680.021    173578.00    285391.00
    9680.304    173493.00    285547.00
    9680.546    173318.00    285637.00
    9680.790    173070.00    285716.00
    9681.032    172605.00    285611.00
    9681.275    172055.00    285573.00
    9681.560    171526.00    285529.00
    9681.802    170996.00    285524.00
    9682.044    170516.00    285708.00
    9682.288    170030.00    285743.00
    9682.531    169614.00    285809.00
    9682.773    169114.00    285707.00
    9683.059    168880.00    285772.00
    9683.301    168683.00    285768.00
    9683.503    168528.00    285752.00
    9683.746    168496.00    285715.00
    9683.990    168511.00    285708.00
    9684.800    168762.00    285469.00
    9685.610    169277.00    285402.00
    9686.421    169763.00    285347.00
    9687.232    170405.00    285572.00
    9688.084    171639.00    285722.00
    9688.896    173799.00    285736.00
    9689.787    177887.00    285672.00
    9690.640    182676.00    285665.00
    9691.531    187119.00    285730.00
    9692.425    190098.00    285600.00
    9693.278    191091.00    285564.00
    9694.253    190227.00    285627.00
    9695.187    187562.00    285545.00
    9696.121    183796.00    285573.00
    9697.096    179709.00    285635.00
    9698.071    175628.00    285612.00
    9699.047    172323.00    285558.00
    9700.021    169807.00    285341.00
    9701.039    167757.00    285246.00
    9702.056    166088.00    285403.00
    9703.072    164077.00    285123.00
    9704.131    161576.00    285287.00
    9705.147    159064.00    285100.00
    9706.247    156162.00    285096.00
    9707.347    152579.00    284878.00
    9708.404    149073.00    284877.00
    9709.545    144663.00    283825.00
    9710.646    141998.00    284258.00
    9711.787    140757.00    285907.00
    9712.929    139634.00    285255.00
    9714.070    139488.00    285112.00
    9715.212    139890.00    284863.00
    9716.395    140938.00    284924.00
    9717.537    142336.00    284859.00
    9718.803    144072.00    284792.00
    9719.986    146179.00    285013.00
    9721.253    147956.00    284899.00
    9722.478    149803.00    285087.00
    9723.704    151413.00    285090.00
    9724.970    153077.00    285274.00
    9726.197    154389.00    285026.00
    9727.546    155618.00    284689.00
    9728.855    155577.00    282373.00
    9730.082    159091.00    287031.00
    9731.475    160090.00    287314.00
    9732.783    160623.00    286838.00
    9734.176    161381.00    286325.00
    9735.527    162368.00    286256.00
    9736.839    163172.00    285859.00
    9738.191    163900.00    285714.00
    9739.461    164771.00    285774.00
    9741.061    165667.00    285636.00
    9742.496    166462.00    285539.00
    9743.933    167025.00    285403.00
    9745.368    167151.00    284868.00
    9746.806    167648.00    285199.00
    9748.283    167672.00    285198.00
    9749.804    167482.00    285046.00
    9751.242    167295.00    284899.00
    9752.804    167160.00    284846.00
    9754.244    167140.00    284832.00
    9755.807    166937.00    284706.00
    9757.370    166680.00    284759.00
    9758.893    166227.00    284779.00
    9760.457    165602.00    284699.00
    9762.021    164778.00    284709.00
    9763.465    164012.00    284793.00
    9765.236    162896.00    284798.00
    9766.885    161819.00    284765.00
    9768.494    161022.00    284965.00
    9770.103    160007.00    284743.00
    9771.754    159155.00    284479.00
    9773.487    157842.00    283200.00
    9775.098    155589.00    280035.00
    9776.832    160135.00    288624.00
    9778.527    159127.00    287305.00
    9780.223    158465.00    286274.00
    9781.959    158366.00    285851.00
    9783.654    158449.00    285460.00
    9785.477    158310.00    284343.00
    9787.174    159610.00    285689.00
    9788.995    160144.00    285618.00
    9790.776    160665.00    285455.00
    9792.561    161220.00    285304.00
    9794.384    161756.00    285112.00
    9796.001    162263.00    285102.00
    9797.994    162964.00    285087.00
    9799.901    163431.00    284679.00
    9801.729    163739.00    284291.00
    9803.641    164701.00    285295.00
    9805.510    165025.00    285344.00
    9807.382    165296.00    285308.00
    9809.295    165497.00    285340.00
    9811.209    165643.00    285289.00
    9813.124    165729.00    285202.00
    9815.122    165973.00    285331.00
    9817.039    166141.00    285300.00
    9819.039    166275.00    285406.00
    9820.957    166309.00    285338.00
    9822.958    166285.00    285098.00
    9824.963    166599.00    285202.00
    9827.007    166835.00    285113.00
    9829.011    166331.00    283770.00
    9831.060    167560.00    285432.00
    9833.149    167839.00    285351.00
    9835.239    167874.00    285029.00
    9837.248    167980.00    284964.00
    9839.340    168294.00    284968.00
    9841.476    168445.00    284833.00
    9843.570    168618.00    284700.00
    9845.707    168719.00    284422.00
    9847.846    166887.00    280975.00
    9850.068    169574.00    285246.00
    9852.208    170388.00    286654.00
    9854.391    170000.00    285931.00
    9856.575    169909.00    285730.00
    9858.761    169710.00    285351.00
    9860.947    169488.00    285062.00
    9863.176    169532.00    285218.00
    9865.405    169442.00    285134.00
    9867.637    169279.00    284916.00
    9869.995    169352.00    285011.00
    9872.229    169343.00    284794.00
    9874.464    169521.00    284905.00
    9876.782    169487.00    284637.00
    9879.103    169151.00    283744.00
    9881.384    169979.00    284917.00
    9883.749    170075.00    284783.00
    9886.073    170279.00    284815.00
    9888.440    170505.00    284551.00
    9890.810    170726.00    284481.00
    9893.221    170711.00    283849.00
    9895.634    171648.00    284879.00
    9898.049    171933.00    284958.00
    9900.464    172144.00    284746.00
    9902.882    172428.00    284759.00
    9905.300    172745.00    284830.00
    9907.761    173036.00    284692.00
    9910.225    173413.00    284798.00
    9912.688    173764.00    284811.00
    9915.239    174109.00    284961.00
    9917.750    174380.00    284912.00
    9920.260    173791.00    283458.00
    9922.771    175229.00    285300.00
    9925.115    175509.00    285196.00
    9927.842    175761.00    285000.00
    9930.400    175980.00    284762.00
    9932.961    176401.00    284859.00
    9935.564    176742.00    284759.00
    9938.214    177150.00    284718.00
    9940.776    177579.00    284908.00
    9943.471    177846.00    284694.00
    9946.038    178305.00    284943.00
    9948.691    178342.00    284681.00
    9951.391    178549.00    284681.00
    9954.047    178792.00    284711.00
    9956.747    178859.00    284571.00
    9959.450    179032.00    284611.00
    9962.153    179198.00    284663.00
    9964.860    179299.00    284587.00
    9967.653    179320.00    284386.00
    9970.405    179401.00    284361.00
    9973.157    179698.00    284554.00
    9975.912    179649.00    284202.00
    9978.712    179956.00    284405.00
    9981.470    179977.00    284031.00
    9984.272    177925.00    280523.00
    9987.120    181861.00    286408.00
    9989.926    181665.00    285667.00
    9992.776    181547.00    285004.00
    9995.628    181667.00    284736.00
    9998.524    181818.00    284478.00
   10001.380    181776.00    283919.00
   10004.330    181999.00    283718.00
   10007.230    183242.00    285136.00
   10010.130    183399.00    284838.00
   10013.040    183662.00    284660.00
   10015.990    183905.00    284507.00
   10018.940    184224.00    284517.00
   10021.980    184647.00    284595.00
   10024.900    184870.00    284483.00
   10027.940    185196.00    284448.00
   10030.940    185507.00    284400.00
   10033.950    185902.00    284538.00
   10036.960    186196.00    284530.00
   10040.010    186469.00    284533.00
   10043.110    186777.00    284581.00
   10046.160    187081.00    284606.00
   10049.180    187369.00    284484.00
   10052.500    187816.00    284654.00
   10055.430    188164.00    284705.00
   10058.540    188374.00    284567.00
   10061.600    188690.00    284580.00
   10064.850    188993.00    284430.00
   10067.960    189293.00    284365.00
   10071.120    189639.00    284407.00
   10074.280    189936.00    284378.00
   10077.490    190221.00    284359.00
   10080.660    190429.00    284174.00
   10083.870    190661.00    284098.00
   10087.130    190986.00    284112.00
   10090.300    191141.00    283934.00
   10093.600    191390.00    283888.00
   10096.870    191689.00    283831.00
   10100.130    191979.00    283839.00
   10103.400    192318.00    283840.00
   10106.720    192498.00    283581.00
   10110.040    193156.00    284105.00
   10113.350    193545.00    284214.00
   10116.680    193892.00    284286.00
   10120.040    194277.00    284386.00
   10123.370    194730.00    284657.00
   10126.740    195060.00    284624.00
   10130.160    195477.00    284679.00
   10133.500    195780.00    284714.00
   10136.960    196112.00    284716.00
   10140.350    196562.00    284726.00
   10143.780    196752.00    284681.00
   10147.250    197027.00    284674.00
   10150.680    197344.00    284615.00
   10154.170    197672.00    284668.00
   10157.650    197957.00    284554.00
   10161.130    198234.00    284455.00
   10164.620    198564.00    284463.00
   10168.160    198801.00    284337.00
   10171.650    199087.00    284188.00
   10175.190    199328.00    284063.00
   10178.730    199631.00    284065.00
   10182.370    199920.00    283934.00
   10185.870    199877.00    283364.00
   10189.510    200936.00    284235.00
   10193.060    201187.00    284030.00
   10196.710    201361.00    283911.00
   10200.310    200960.00    282704.00
   10203.960    202276.00    284197.00
   10207.620    203466.00    285123.00
