#XDI/1.1  GSE/1.0
# Column.1: energy eV
# Column.2: itrans
# Column.3: i0
# Scan.end_time: 2006-12-17 09:35:21
# Scan.start_time: 2006-12-17 09:17:04
# Element.symbol:  Zn
# Element.edge:  K
# Facility.Name:  APS
# Beamline.Name:  13-BM-D
# Beamline.xray_source:  bending magnet
# Mono.dspacing:  3.13555
# Mono.name: Si 111
# Beamline.Storage_Ring_Current: 100.833 || S:SRcurrentAI.VAL
# Beamline.FOE_Mono_angle_readback: 12.0648 || 13BMA:m17.RBV
# Beamline.Mono_Energy_drive_val: 9459.0000 || 13BMA:E:Energy.VAL
# Beamline.Mono_Energy_readback: 9454.0380 || 13BMA:E:E_RBV
# Beamline.Mono_Beam_Offset: 21.0000 || 13BMA:E:height.VAL
# Beamline.I0_sensitivity_value: 10 || 13BMD:A3sens_num.VAL
# Beamline.I0_sensitivity_value: nA/V || 13BMD:A3sens_unit.VAL
# Beamline.I1_sensitivity_value: 2 || 13BMD:A2sens_num.VAL
# Beamline.I1_sensitivity_value: nA/V || 13BMD:A2sens_unit.VAL
# Beamline.FOE_Mono_Yout: 11.0387 || 13BMA:m10.VAL
# Beamline.FOE_Mono_Yin: 11.2521 || 13BMA:m11.VAL
# Beamline.FOE_Mono_Yup: 10.2891 || 13BMA:m12.VAL
# Beamline.FOE_Mono_Cage_Y: 0.000 || 13BMA:m13.VAL
# Beamline.FOE_Mono_Z: 52.577 || 13BMA:m14.VAL
# Beamline.FOE_Mono_angle: 12.0648 || 13BMA:m17.VAL
# Beamline.BMD_Horiz_Width: 6.000 || 13BMD:BMDHt2.C
# Beamline.BMD_Horiz_Center: 1.000 || 13BMD:BMDHt2.D
# Beamline.BMD_Vertical_Width: 1.000 || 13BMD:BMDVt2.C
# Beamline.BMD_Vertical_Center: -10.900 || 13BMD:BMDVt2.D
# Beamline.Sample_X: 171.259 || 13BMD:m70.VAL
# Beamline.Sample_Z__focus: 0.000 || 13BMD:m33.VAL
# Beamline.Sample_Y__height: 93.099 || 13BMD:m34.VAL
# Beamline.CCD_Z: 87.500 || 13BMD:m35.VAL
# Beamline.Hori__slit_X: 25.000 || 13BMD:m27.VAL
# Beamline.V_Bottom: 0.000 || 13BMD:m28.VAL
# Beamline.Hw_UpStream: 1000 || 13BMD:m78.VAL
# Beamline.Vp_UpStream: 944 || 13BMD:m79.VAL
# Beamline.Vw_UpStream: -165400 || 13BMD:m80.VAL
# ScanParameters.Start: Scan.Member: Value
# ScanParameters.E0: 9659.00
# ScanParameters.Legend: Start       Stop       Step       Npts       Time   Kspace?
# ScanParameters.Region1: -200.00    -10.000     5.0000     39.000     2.0000   0
# ScanParameters.Region2: -10.000     25.000    0.25000     141.00     2.0000   0
# ScanParameters.Region3: 2.5616     12.000   0.039993     237.00     2.0000   1
# ScanParameters.End: here
#-------------------------
#  energy  itrans  i0
    9459.017    109850.00    292261.00 
    9463.885    108563.00    287880.00 
    9468.992    108012.00    285408.00 
    9474.024    107838.00    283968.00 
    9479.026    107751.00    282829.00 
    9483.994    107761.00    281936.00 
    9489.005    107966.00    281556.00 
    9494.022    108214.00    281192.00 
    9499.006    108475.00    280963.00 
    9503.995    108804.00    280871.00 
    9508.988    109190.00    280874.00 
    9513.989    109534.00    280776.00 
    9518.993    109859.00    280656.00 
    9524.005    110278.00    280878.00 
    9529.020    110623.00    280850.00 
    9534.001    110903.00    280768.00 
    9538.988    111211.00    280599.00 
    9544.021    111646.00    280696.00 
    9549.019    111925.00    280611.00 
    9554.021    112326.00    280795.00 
    9558.990    112704.00    280855.00 
    9564.006    113079.00    280956.00 
    9569.024    113277.00    280640.00 
    9574.010    112387.00    278739.00 
    9579.000    114066.00    281100.00 
    9583.996    114786.00    281993.00 
    9588.997    114947.00    281589.00 
    9594.004    115166.00    281382.00 
    9599.016    115432.00    281265.00 
    9603.993    115570.00    281130.00 
    9609.016    115826.00    281107.00 
    9614.004    116094.00    281005.00 
    9618.956    116408.00    281056.00 
    9623.995    116568.00    281069.00 
    9628.999    116771.00    281192.00 
    9634.009    116237.00    280198.00 
    9639.023    116634.00    281344.00 
    9644.002    116092.00    281237.00 
    9649.027    114790.00    281257.00 
    9649.269    114795.00    281651.00 
    9649.510    114890.00    282064.00 
    9649.752    114867.00    282342.00 
    9649.993    114798.00    282477.00 
    9650.275    114707.00    282605.00 
    9650.557    114640.00    282732.00 
    9650.797    114564.00    282839.00 
    9651.040    114451.00    282793.00 
    9651.280    114331.00    282891.00 
    9651.562    114193.00    282977.00 
    9651.765    114049.00    283046.00 
    9652.045    113862.00    283084.00 
    9652.246    113670.00    282995.00 
    9652.529    113443.00    282823.00 
    9652.771    113095.00    282714.00 
    9653.011    112898.00    282734.00 
    9653.294    112609.00    282568.00 
    9653.535    112284.00    282309.00 
    9653.776    111996.00    282253.00 
    9654.059    111683.00    282049.00 
    9654.260    111416.00    282132.00 
    9654.541    111059.00    281948.00 
    9654.742    110751.00    281943.00 
    9655.064    110388.00    281978.00 
    9655.306    109979.00    281806.00 
    9655.507    109644.00    281967.00 
    9655.750    109294.00    282049.00 
    9655.991    108894.00    282039.00 
    9656.274    108505.00    282251.00 
    9656.556    108015.00    282211.00 
    9656.757    107496.00    282256.00 
    9656.998    107063.00    282563.00 
    9657.280    106491.00    282728.00 
    9657.522    105701.00    282765.00 
    9657.805    104916.00    282855.00 
    9658.046    104079.00    282919.00 
    9658.248    103209.00    283155.00 
    9658.489    102224.00    283378.00 
    9658.771    100865.00    283248.00 
    9659.054     99614.00    283445.00 
    9659.296     98070.00    283160.00 
    9659.498     96458.00    283370.00 
    9659.739     94460.00    283152.00 
    9660.021     91809.00    282980.00 
    9660.304     89140.00    282930.00 
    9660.545     86303.00    282944.00 
    9660.788     83188.00    282729.00 
    9660.989     79925.00    282453.00 
    9661.312     75963.00    282415.00 
    9661.554     72268.00    282457.00 
    9661.796     68409.00    282274.00 
    9661.997     64091.00    282215.00 
    9662.238     59129.00    282379.00 
    9662.521     52812.00    282228.00 
    9662.804     46701.00    282254.00 
    9663.047     40698.00    282438.00 
    9663.248     34825.00    282376.00 
    9663.490     29347.00    282224.00 
    9663.771     24223.00    282435.00 
    9664.055     20595.00    282549.00 
    9664.297     17643.00    282463.00 
    9664.498     15338.00    282324.00 
    9664.741     13465.00    282330.00 
    9665.023     11818.00    282560.00 
    9665.307     10800.00    282613.00 
    9665.548     10045.00    282672.00 
    9665.790      9497.00    282660.00 
    9665.991      9113.00    282636.00 
    9666.274      8772.00    282663.00 
    9666.557      8528.00    282480.00 
    9666.759      8298.00    282416.00 
    9667.002      8094.00    282341.00 
    9667.283      7877.00    282500.00 
    9667.525      7646.00    282584.00 
    9667.809      7433.00    282556.00 
    9668.051      7286.00    282616.00 
    9668.293      7204.00    282634.00 
    9668.536      7216.00    282634.00 
    9668.778      7379.00    282622.00 
    9669.020      7663.00    282629.00 
    9669.264      8089.00    282662.00 
    9669.545      8631.00    282672.00 
    9669.747      9271.00    282793.00 
    9670.031     10025.00    282818.00 
    9670.272     10974.00    282770.00 
    9670.515     11870.00    282729.00 
    9670.757     12793.00    282732.00 
    9671.000     13761.00    282809.00 
    9671.242     14744.00    282924.00 
    9671.526     15825.00    283030.00 
    9671.809     16649.00    282924.00 
    9672.050     17439.00    282722.00 
    9672.294     18169.00    282715.00 
    9672.496     18889.00    282687.00 
    9672.778     19580.00    282686.00 
    9673.021     20400.00    282672.00 
    9673.304     21049.00    282626.00 
    9673.506     21738.00    282614.00 
    9673.790     22358.00    282689.00 
    9673.992     22914.00    282614.00 
    9674.274     23492.00    282572.00 
    9674.517     23946.00    282632.00 
    9674.800     24300.00    282541.00 
    9675.002     24593.00    282616.00 
    9675.285     24782.00    282520.00 
    9675.528     24937.00    282321.00 
    9675.811     25035.00    282151.00 
    9676.055     25115.00    282298.00 
    9676.297     25148.00    282222.00 
    9676.539     25159.00    282043.00 
    9676.781     25203.00    282326.00 
    9677.025     25270.00    282352.00 
    9677.308     25328.00    282243.00 
    9677.552     25386.00    282202.00 
    9677.754     25486.00    282494.00 
    9678.036     25597.00    282642.00 
    9678.279     25680.00    282629.00 
    9678.522     25807.00    282725.00 
    9678.806     25909.00    282738.00 
    9679.048     26011.00    282889.00 
    9679.292     26110.00    283088.00 
    9679.534     26167.00    282871.00 
    9679.776     26230.00    282755.00 
    9680.061     26323.00    282854.00 
    9680.264     26391.00    282925.00 
    9680.546     26456.00    282901.00 
    9680.790     26552.00    282708.00 
    9681.032     26618.00    282561.00 
    9681.315     26715.00    282590.00 
    9681.560     26785.00    282524.00 
    9681.802     26895.00    282561.00 
    9682.044     27013.00    282361.00 
    9682.288     27119.00    282243.00 
    9682.531     27247.00    282197.00 
    9682.813     27419.00    282331.00 
    9683.059     27556.00    282507.00 
    9683.301     27712.00    282494.00 
    9683.543     27882.00    282413.00 
    9683.746     28044.00    282301.00 
    9683.990     28234.00    282269.00 
    9684.800     28990.00    282236.00 
    9685.610     29819.00    282237.00 
    9686.421     30637.00    281925.00 
    9687.232     31475.00    282074.00 
    9688.084     32239.00    281802.00 
    9688.896     32836.00    281894.00 
    9689.787     33415.00    281707.00 
    9690.640     33939.00    281788.00 
    9691.531     34305.00    281827.00 
    9692.425     34540.00    281863.00 
    9693.318     34551.00    281992.00 
    9694.253     34262.00    282127.00 
    9695.187     33596.00    282053.00 
    9696.121     32660.00    282293.00 
    9697.096     31487.00    282456.00 
    9698.071     30059.00    282527.00 
    9699.006     28544.00    282555.00 
    9700.021     27077.00    282494.00 
    9701.039     25583.00    282508.00 
    9702.056     24381.00    282533.00 
    9703.072     23381.00    282415.00 
    9704.131     22559.00    282417.00 
    9705.189     21959.00    282328.00 
    9706.247     21481.00    282210.00 
    9707.347     21175.00    282090.00 
    9708.404     21013.00    282125.00 
    9709.505     20880.00    280991.00 
    9710.646     20995.00    281433.00 
    9711.787     21247.00    282959.00 
    9712.929     21335.00    282542.00 
    9714.070     21420.00    282435.00 
    9715.171     21477.00    282346.00 
    9716.354     21461.00    282014.00 
    9717.579     21444.00    281978.00 
    9718.803     21404.00    282042.00 
    9720.028     21359.00    281923.00 
    9721.253     21429.00    282095.00 
    9722.478     21565.00    282047.00 
    9723.704     21829.00    281980.00 
    9724.970     22234.00    282064.00 
    9726.197     22695.00    281844.00 
    9727.587     23179.00    281265.00 
    9728.814     23513.00    279135.00 
    9730.124     24281.00    283240.00 
    9731.433     24728.00    283529.00 
    9732.825     25123.00    282938.00 
    9734.176     25498.00    282610.00 
    9735.527     25847.00    282288.00 
    9736.880     26162.00    282140.00 
    9738.231     26416.00    282143.00 
    9739.625     26623.00    281968.00 
    9740.856     26767.00    281808.00 
    9742.455     26917.00    281824.00 
    9743.933     26995.00    281824.00 
    9745.368     27001.00    281468.00 
    9746.806     26989.00    281862.00 
    9748.283     26910.00    281988.00 
    9749.804     26785.00    281916.00 
    9751.242     26653.00    281977.00 
    9752.804     26478.00    281848.00 
    9754.244     26351.00    282026.00 
    9755.807     26173.00    281889.00 
    9757.370     26064.00    282068.00 
    9758.728     25990.00    282024.00 
    9760.457     25861.00    281868.00 
    9762.021     25813.00    281987.00 
    9763.671     25755.00    281993.00 
    9765.277     25708.00    281961.00 
    9766.885     25611.00    281895.00 
    9768.494     25508.00    281844.00 
    9770.103     25408.00    281746.00 
    9771.754     25298.00    281655.00 
    9773.487     24991.00    280152.00 
    9775.098     24776.00    277073.00 
    9776.832     25370.00    285707.00 
    9778.527     25104.00    284339.00 
    9780.223     24975.00    283341.00 
    9781.959     24902.00    282925.00 
    9783.654     24842.00    282413.00 
    9785.477     24726.00    281267.00 
    9787.174     24849.00    282517.00 
    9788.995     24871.00    282312.00 
    9790.776     24914.00    282225.00 
    9792.561     24977.00    282213.00 
    9794.384     25020.00    281923.00 
    9796.167     25099.00    281794.00 
    9797.994     25200.00    281738.00 
    9799.901     25285.00    281200.00 
    9801.771     25384.00    281000.00 
    9803.641     25571.00    281579.00 
    9805.510     25731.00    281583.00 
    9807.382     25882.00    281544.00 
    9809.295     26038.00    281655.00 
    9811.209     26188.00    281594.00 
    9813.124     26300.00    281587.00 
    9815.122     26435.00    281772.00 
    9817.039     26536.00    281791.00 
    9819.039     26657.00    282007.00 
    9820.957     26728.00    281999.00 
    9822.958     26804.00    281990.00 
    9824.963     26882.00    281989.00 
    9827.007     27005.00    282182.00 
    9829.011     26980.00    280958.00 
    9831.101     27207.00    282493.00 
    9833.106     27249.00    282322.00 
    9835.197     27288.00    282309.00 
    9837.248     27271.00    282248.00 
    9839.383     27264.00    281967.00 
    9841.476     27249.00    281843.00 
    9843.402     27231.00    281656.00 
    9845.707     27223.00    281458.00 
    9847.846     26879.00    277927.00 
    9849.984     27376.00    281747.00 
    9852.208     27457.00    283231.00 
    9854.391     27422.00    282621.00 
    9856.575     27355.00    281946.00 
    9858.761     27335.00    281720.00 
    9860.947     27316.00    281489.00 
    9863.176     27311.00    281398.00 
    9865.405     27313.00    281349.00 
    9867.637     27308.00    281207.00 
    9869.954     27309.00    281081.00 
    9872.229     27358.00    281171.00 
    9874.464     27380.00    281151.00 
    9876.782     27404.00    281114.00 
    9879.103     27403.00    280466.00 
    9881.384     27609.00    281902.00 
    9883.749     27651.00    281802.00 
    9886.073     27748.00    281978.00 
    9888.440     27836.00    281993.00 
    9890.852     27883.00    281856.00 
    9893.179     27928.00    281317.00 
    9895.592     28116.00    282390.00 
    9898.049     28195.00    282325.00 
    9900.464     28268.00    282235.00 
    9902.924     28335.00    282072.00 
    9905.300     28461.00    282111.00 
    9907.761     28519.00    281999.00 
    9910.225     28595.00    281884.00 
    9912.688     28689.00    281889.00 
    9915.239     28786.00    281702.00 
    9917.750     28862.00    281640.00 
    9920.260     28787.00    280047.00 
    9922.771     29066.00    281944.00 
    9925.286     29113.00    281513.00 
    9927.842     29155.00    281312.00 
    9930.400     29251.00    281223.00 
    9932.961     29318.00    281112.00 
    9935.564     29416.00    281189.00 
    9938.214     29505.00    281254.00 
    9940.776     29606.00    281146.00 
    9943.429     29676.00    281150.00 
    9946.038     29759.00    281334.00 
    9948.691     29834.00    281285.00 
    9951.391     29927.00    281367.00 
    9954.089     29999.00    281366.00 
    9956.747     30083.00    281475.00 
    9959.450     30115.00    281271.00 
    9962.153     30180.00    281464.00 
    9964.860     30252.00    281551.00 
    9967.653     30283.00    281475.00 
    9970.405     30371.00    281609.00 
    9973.157     30397.00    281541.00 
    9975.912     30425.00    281245.00 
    9978.712     30487.00    281450.00 
    9981.470     30544.00    281142.00 
    9984.272     30242.00    277535.00 
    9987.120     30950.00    283582.00 
    9989.926     30909.00    282583.00 
    9992.776     30880.00    282191.00 
    9995.455     30878.00    281879.00 
    9998.354     30941.00    281656.00 
   10001.380     30964.00    280943.00 
   10004.280     31058.00    280854.00 
   10007.270     31282.00    282164.00 
   10010.130     31346.00    281841.00 
   10013.080     31358.00    281508.00 
   10015.990     31488.00    281644.00 
   10018.940     31579.00    281529.00 
   10021.980     31672.00    281319.00 
   10024.900     31781.00    281330.00 
   10027.940     31879.00    281325.00 
   10030.900     31970.00    281195.00 
   10033.950     32085.00    281162.00 
   10037.000     32151.00    281149.00 
   10040.050     32271.00    281235.00 
   10043.110     32377.00    281339.00 
   10046.160     32514.00    281344.00 
   10049.220     32550.00    281128.00 
   10052.280     32669.00    281216.00 
   10055.390     32785.00    281310.00 
   10058.500     32875.00    281300.00 
   10061.600     32969.00    281270.00 
   10064.800     33012.00    281142.00 
   10067.960     33059.00    280878.00 
   10071.120     33201.00    281146.00 
   10074.280     33282.00    281131.00 
   10077.450     33399.00    281108.00 
   10080.660     33466.00    281003.00 
   10083.870     33551.00    281054.00 
   10087.080     33621.00    280930.00 
   10090.300     33731.00    280912.00 
   10093.600     33837.00    280793.00 
   10096.870     33908.00    280767.00 
   10100.130     33998.00    280778.00 
   10103.400     34101.00    280830.00 
   10106.720     34158.00    280561.00 
   10110.040     34318.00    281134.00 
   10113.350     34439.00    281256.00 
   10116.680     34533.00    281284.00 
   10120.000     34635.00    281508.00 
   10123.370     34727.00    281525.00 
   10126.740     34865.00    281735.00 
   10130.160     34982.00    281740.00 
   10133.500     35034.00    281612.00 
   10136.960     35157.00    281840.00 
   10140.300     35192.00    281741.00 
   10143.780     35302.00    281748.00 
   10147.250     35364.00    281637.00 
   10150.640     35456.00    281542.00 
   10154.120     35515.00    281477.00 
   10157.600     35564.00    281333.00 
   10161.130     35692.00    281331.00 
   10164.620     35775.00    281267.00 
   10168.110     35878.00    281115.00 
   10171.650     35939.00    280901.00 
   10175.190     36045.00    280890.00 
   10178.730     36105.00    280699.00 
   10182.370     36229.00    280683.00 
   10185.870     36249.00    280046.00 
   10189.510     36433.00    280781.00 
   10193.060     36501.00    280553.00 
   10196.710     36669.00    280609.00 
   10200.130     36677.00    279572.00 
   10204.010     36793.00    280849.00 
   10207.660     37143.00    281551.00 
