#XDI/1.1  GSE/1.0
# Column.1: energy eV
# Column.2: itrans
# Column.3: i0
# Scan.end_time: 2006-12-17 17:06:53
# Scan.start_time: 2006-12-17 16:48:14
# Element.symbol:  Zn
# Element.edge:  K
# Mono.d_spacing:  3.13555
# Mono.name: Si 111
# Sample.name: hopeite
# Sample.formula: Zn3(PO4)2Â·4H2O
# Sample.prep: powder on tape, many layers
# Sample.temperature: room temperature
# Beamline.Name:  13-BM-D
# Beamline.xray_source:  bending magnet
# Beamline.collimation: none
# Beamline.focusing: no
# Beamline.harmonic_rejection: Rh-coated mirror, detuned
# Beamline.Storage_Ring_Current: 94.9938 mA
# Facility.name: APS
# Facility.energy: 7.00 GeV
# Facility.xray_source: APS bending magnet
# Detector.I0: 10 nA/V 10 cm N2
# Detector.I1: 2 nA/V 10 cm Ar (?)
# ScanParameters.E0: 9659.00
# ScanParameters.Legend: Start       Stop       Step       Npts       Time   Kspace?
# ScanParameters.Region1: -200.00    -10.000     5.0000     39.000     2.0000   0
# ScanParameters.Region2: -10.000     25.000    0.25000     141.00     2.0000   0
# ScanParameters.Region3: 2.5616     12.000   0.039993     237.00     2.0000   1
#-------------------------
#  energy  itrans  i0
    9459.017    207465.00    275702.00
    9464.040    205060.00    271708.00
    9468.992    203819.00    269255.00
    9474.024    203045.00    267612.00
    9479.026    202763.00    266570.00
    9483.994    202783.00    265948.00
    9489.005    202967.00    265465.00
    9494.022    203077.00    264820.00
    9499.006    203440.00    264643.00
    9503.995    204112.00    264880.00
    9508.988    204839.00    265315.00
    9513.989    205274.00    265223.00
    9518.993    205537.00    264865.00
    9524.005    206018.00    264814.00
    9529.020    206448.00    264805.00
    9534.001    207033.00    264811.00
    9538.988    207395.00    264643.00
    9544.021    207842.00    264569.00
    9549.019    208304.00    264582.00
    9554.021    208856.00    264546.00
    9558.990    209461.00    264731.00
    9564.006    209703.00    264389.00
    9569.024    210131.00    264284.00
    9574.010    209473.00    262993.00
    9579.000    210943.00    264336.00
    9583.996    212336.00    265544.00
    9588.997    212526.00    265159.00
    9594.004    212740.00    264919.00
    9599.016    212975.00    264729.00
    9603.993    213448.00    264904.00
    9609.016    213631.00    264653.00
    9614.004    213802.00    264457.00
    9618.996    214052.00    264521.00
    9623.995    214256.00    264503.00
    9628.999    214540.00    264649.00
    9634.009    213530.00    263521.00
    9639.023    214231.00    264987.00
    9644.002    213107.00    264917.00
    9649.027    210699.00    264864.00
    9649.269    210742.00    265140.00
    9649.510    210965.00    265594.00
    9649.752    211119.00    266077.00
    9649.993    210944.00    266135.00
    9650.275    210813.00    266235.00
    9650.517    210613.00    266307.00
    9650.797    210542.00    266429.00
    9651.040    210388.00    266582.00
    9651.280    210150.00    266662.00
    9651.562    209881.00    266685.00
    9651.765    209564.00    266723.00
    9652.006    209181.00    266576.00
    9652.246    208836.00    266535.00
    9652.529    208417.00    266509.00
    9652.771    207912.00    266442.00
    9653.051    207536.00    266431.00
    9653.252    207176.00    266486.00
    9653.535    206696.00    266493.00
    9653.815    206138.00    266441.00
    9654.059    205660.00    266397.00
    9654.260    205198.00    266430.00
    9654.501    204723.00    266476.00
    9654.742    204029.00    266431.00
    9655.024    203296.00    266405.00
    9655.266    202594.00    266399.00
    9655.549    201877.00    266418.00
    9655.750    201112.00    266440.00
    9655.991    200302.00    266397.00
    9656.274    199362.00    266360.00
    9656.516    198535.00    266363.00
    9656.797    197510.00    266340.00
    9656.998    196482.00    266254.00
    9657.241    195163.00    266025.00
    9657.522    193813.00    266074.00
    9657.805    192377.00    266255.00
    9658.046    190870.00    266411.00
    9658.287    188989.00    266492.00
    9658.530    186899.00    266511.00
    9658.771    184272.00    266536.00
    9659.054    181782.00    266595.00
    9659.296    178882.00    266477.00
    9659.538    175550.00    266530.00
    9659.779    171920.00    266527.00
    9660.063    166717.00    266527.00
    9660.304    161798.00    266512.00
    9660.545    156533.00    266521.00
    9660.788    150546.00    266510.00
    9660.989    144147.00    266568.00
    9661.312    136192.00    266679.00
    9661.554    128914.00    266685.00
    9661.796    121114.00    266519.00
    9662.037    112941.00    266462.00
    9662.278    104313.00    266364.00
    9662.521     94485.00    266339.00
    9662.804     86229.00    266347.00
    9663.047     78516.00    266324.00
    9663.288     71419.00    266368.00
    9663.530     65823.00    266350.00
    9663.771     60361.00    266294.00
    9664.015     56980.00    266377.00
    9664.297     54194.00    266392.00
    9664.538     52003.00    266415.00
    9664.781     50236.00    266356.00
    9665.023     48621.00    266297.00
    9665.265     47640.00    266340.00
    9665.548     46920.00    266304.00
    9665.790     46560.00    266320.00
    9666.031     46451.00    266198.00
    9666.274     46610.00    266044.00
    9666.517     46847.00    266029.00
    9666.799     47213.00    266179.00
    9667.002     47549.00    266156.00
    9667.283     47861.00    266068.00
    9667.525     48155.00    265986.00
    9667.769     48451.00    266110.00
    9668.051     48710.00    266138.00
    9668.253     48967.00    266043.00
    9668.536     49255.00    266009.00
    9668.778     49679.00    266088.00
    9669.060     50071.00    266199.00
    9669.264     50645.00    266252.00
    9669.545     51223.00    266124.00
    9669.747     51984.00    266030.00
    9669.989     52823.00    266055.00
    9670.272     54090.00    266198.00
    9670.555     55299.00    266224.00
    9670.757     56593.00    266271.00
    9671.040     57981.00    266221.00
    9671.242     59311.00    266210.00
    9671.526     60739.00    266217.00
    9671.769     61789.00    266119.00
    9672.010     62564.00    266055.00
    9672.294     63194.00    266170.00
    9672.536     63615.00    266292.00
    9672.738     63772.00    266314.00
    9673.021     63824.00    266165.00
    9673.304     63782.00    265969.00
    9673.506     63670.00    265820.00
    9673.790     63620.00    265999.00
    9674.032     63507.00    265776.00
    9674.274     63572.00    265844.00
    9674.517     63698.00    265838.00
    9674.760     63941.00    265753.00
    9675.042     64301.00    265935.00
    9675.244     64688.00    265775.00
    9675.528     65268.00    266048.00
    9675.771     65805.00    266266.00
    9676.055     66336.00    266273.00
    9676.297     66761.00    266391.00
    9676.539     67141.00    266482.00
    9676.781     67514.00    266579.00
    9677.025     67787.00    266745.00
    9677.268     67820.00    266607.00
    9677.552     67851.00    266654.00
    9677.794     67860.00    266789.00
    9677.996     67810.00    266612.00
    9678.279     67737.00    266445.00
    9678.522     67694.00    266421.00
    9678.806     67695.00    266311.00
    9679.048     67774.00    266209.00
    9679.292     67911.00    266123.00
    9679.534     68168.00    266157.00
    9679.776     68474.00    266052.00
    9680.021     68762.00    265948.00
    9680.304     69106.00    265740.00
    9680.546     69515.00    266001.00
    9680.790     69854.00    265773.00
    9681.032     70226.00    265830.00
    9681.275     70685.00    266009.00
    9681.520     71017.00    265927.00
    9681.802     71363.00    265846.00
    9682.044     71732.00    266055.00
    9682.288     72048.00    266105.00
    9682.491     72353.00    266185.00
    9682.773     72618.00    266134.00
    9683.059     72872.00    266144.00
    9683.301     73124.00    266192.00
    9683.543     73325.00    266191.00
    9683.788     73564.00    266209.00
    9684.030     73731.00    266195.00
    9684.800     74617.00    266017.00
    9685.610     75651.00    266163.00
    9686.421     76871.00    266209.00
    9687.232     78526.00    266170.00
    9688.084     80277.00    266073.00
    9688.896     81626.00    265906.00
    9689.787     82841.00    265797.00
    9690.640     83819.00    265957.00
    9691.531     84311.00    266005.00
    9692.425     84296.00    265989.00
    9693.278     83742.00    265880.00
    9694.253     82906.00    265973.00
    9695.187     81845.00    266178.00
    9696.121     80713.00    266200.00
    9697.096     79601.00    266164.00
    9698.071     78460.00    266245.00
    9699.047     77408.00    266240.00
    9700.021     76480.00    266233.00
    9701.039     75575.00    266219.00
    9702.056     74525.00    266213.00
    9703.072     73422.00    266275.00
    9704.131     72107.00    266187.00
    9705.189     71003.00    266129.00
    9706.247     70129.00    266196.00
    9707.347     69488.00    265969.00
    9708.404     69116.00    265666.00
    9709.545     68795.00    264865.00
    9710.646     68677.00    264807.00
    9711.787     68967.00    266519.00
    9712.929     68628.00    266154.00
    9714.070     68336.00    265885.00
    9715.212     68021.00    265872.00
    9716.395     67659.00    265570.00
    9717.537     67425.00    265537.00
    9718.763     67206.00    265349.00
    9720.028     67173.00    265352.00
    9721.253     67251.00    265389.00
    9722.478     67350.00    265311.00
    9723.663     67587.00    265267.00
    9724.930     67927.00    265541.00
    9726.237     68306.00    265465.00
    9727.506     68637.00    265153.00
    9728.814     68586.00    262981.00
    9730.124     69943.00    266683.00
    9731.433     70708.00    267701.00
    9732.825     71069.00    267055.00
    9734.176     71563.00    266799.00
    9735.323     71922.00    266496.00
    9736.839     72371.00    266219.00
    9738.231     72673.00    266150.00
    9739.625     72945.00    266136.00
    9740.979     73191.00    266124.00
    9742.496     73406.00    266061.00
    9743.933     73568.00    265993.00
    9745.368     73695.00    265660.00
    9746.806     73921.00    265682.00
    9748.283     74155.00    266012.00
    9749.804     74225.00    265822.00
    9751.242     74169.00    265574.00
    9752.804     74135.00    265579.00
    9754.244     74037.00    265483.00
    9755.807     73953.00    265465.00
    9757.370     73838.00    265419.00
    9758.893     73752.00    265350.00
    9760.457     73672.00    265339.00
    9762.021     73710.00    265389.00
    9763.671     73725.00    265332.00
    9765.277     73717.00    265179.00
    9766.885     73791.00    265269.00
    9768.494     73852.00    265240.00
    9770.103     73862.00    265229.00
    9771.754     73733.00    265008.00
    9773.487     73254.00    263910.00
    9775.098     72046.00    260352.00
    9776.832     74115.00    268889.00
    9778.527     73714.00    267971.00
    9780.223     73369.00    266938.00
    9781.959     73242.00    266419.00
    9783.654     73142.00    265957.00
    9785.477     72839.00    264749.00
    9787.174     73159.00    265969.00
    9788.995     73143.00    265924.00
    9790.776     73066.00    265793.00
    9792.561     73058.00    265860.00
    9794.384     72968.00    265714.00
    9796.167     72928.00    265641.00
    9797.994     73039.00    265836.00
    9799.901     72994.00    265381.00
    9801.771     72961.00    264988.00
    9803.641     73219.00    265735.00
    9805.469     73283.00    265845.00
    9807.382     73305.00    265733.00
    9809.295     73293.00    265519.00
    9811.209     73363.00    265393.00
    9813.124     73526.00    265430.00
    9815.122     73727.00    265441.00
    9817.039     73969.00    265538.00
    9819.039     74123.00    265456.00
    9820.957     74294.00    265474.00
    9822.958     74489.00    265492.00
    9824.963     74671.00    265393.00
    9827.007     74878.00    265405.00
    9829.011     74738.00    264385.00
    9831.060     75373.00    265986.00
    9833.106     75452.00    265755.00
    9835.197     75551.00    265413.00
    9837.248     75692.00    265470.00
    9839.340     75748.00    265343.00
    9841.476     75746.00    265175.00
    9843.570     75847.00    264916.00
    9845.707     75770.00    265109.00
    9847.846     75020.00    262475.00
    9849.984     75653.00    264654.00
    9852.208     76444.00    267139.00
    9854.391     76387.00    266627.00
    9856.575     76337.00    266168.00
    9858.761     76382.00    265976.00
    9860.988     76451.00    265596.00
    9863.176     76582.00    265622.00
    9865.405     76678.00    265599.00
    9867.637     76736.00    265449.00
    9869.954     76832.00    265394.00
    9872.229     76894.00    265219.00
    9874.464     76971.00    265319.00
    9876.782     77074.00    265381.00
    9879.103     76872.00    264556.00
    9881.384     77272.00    265806.00
    9883.749     77262.00    265658.00
    9886.073     77351.00    265767.00
    9888.440     77397.00    265376.00
    9890.810     77461.00    265048.00
    9893.179     77438.00    264537.00
    9895.634     77822.00    265580.00
    9898.049     77844.00    265233.00
    9900.464     77953.00    265427.00
    9902.882     77985.00    265358.00
    9905.300     78110.00    265484.00
    9907.761     78153.00    265386.00
    9910.225     78269.00    265485.00
    9912.688     78368.00    265569.00
    9915.239     78352.00    265538.00
    9917.750     78392.00    265378.00
    9920.260     78094.00    264161.00
    9922.771     78770.00    266013.00
    9925.286     78853.00    265729.00
    9927.842     78858.00    265327.00
    9930.400     79031.00    265537.00
    9932.961     79089.00    265324.00
    9935.564     79260.00    265343.00
    9938.214     79449.00    265278.00
    9940.776     79609.00    265160.00
    9943.429     79919.00    265296.00
    9946.038     80104.00    265166.00
    9948.691     80088.00    264964.00
    9951.391     80268.00    264875.00
    9954.047     80357.00    264932.00
    9956.747     80445.00    264773.00
    9959.450     80561.00    264855.00
    9962.153     80715.00    264813.00
    9964.860     80843.00    264728.00
    9967.653     80855.00    264665.00
    9970.405     81031.00    264898.00
    9973.157     81185.00    265184.00
    9975.912     81236.00    265127.00
    9978.712     81389.00    265313.00
    9981.470     81336.00    265123.00
    9984.272     80242.00    261529.00
    9987.120     82178.00    267619.00
    9989.926     82027.00    266693.00
    9992.776     82067.00    266237.00
    9995.628     82052.00    265655.00
    9998.569     82083.00    265442.00
   10001.380     81918.00    264807.00
   10004.280     81993.00    264154.00
   10007.230     82529.00    265539.00
   10010.130     82585.00    265551.00
   10013.080     82805.00    265188.00
   10015.990     82803.00    265228.00
   10018.940     82874.00    265241.00
   10021.980     83016.00    265090.00
   10024.940     83078.00    265019.00
   10027.900     83219.00    264794.00
   10030.940     83434.00    264836.00
   10033.950     83571.00    264685.00
   10037.000     83697.00    264647.00
   10040.100     83932.00    264567.00
   10043.060     84158.00    264658.00
   10046.120     84309.00    264664.00
   10049.220     84498.00    264782.00
   10052.280     84613.00    264728.00
   10055.390     84812.00    264906.00
   10058.500     84972.00    264982.00
   10061.600     85133.00    265043.00
   10064.800     85429.00    265196.00
   10067.960     85579.00    265100.00
   10071.120     85695.00    265489.00
   10074.280     85818.00    265380.00
   10077.490     85963.00    265424.00
   10080.660     86099.00    265414.00
   10083.870     86314.00    265584.00
   10087.130     86465.00    265464.00
   10090.300     86605.00    266044.00
   10093.600     86657.00    265789.00
   10096.820     86709.00    265564.00
   10100.180     86800.00    265428.00
   10103.400     86939.00    265317.00
   10106.760     86945.00    264934.00
   10110.040     87220.00    265175.00
   10113.350     87359.00    265126.00
   10116.680     87466.00    264816.00
   10120.040     87622.00    265041.00
   10123.370     87726.00    265106.00
   10126.740     87872.00    265125.00
   10130.160     87928.00    264885.00
   10133.500     88013.00    264880.00
   10136.960     88261.00    264816.00
   10140.300     88435.00    264771.00
   10143.730     88403.00    264714.00
   10147.250     88612.00    264792.00
   10150.640     88721.00    264661.00
   10154.120     88908.00    264671.00
   10157.650     89159.00    264789.00
   10161.180     89269.00    264752.00
   10164.620     89408.00    264633.00
   10168.160     89659.00    264680.00
   10171.650     89955.00    264681.00
   10175.190     90082.00    264563.00
   10178.730     90229.00    264809.00
   10182.370     90363.00    264651.00
   10185.870     90437.00    264284.00
   10189.510     90865.00    264889.00
   10193.060     91013.00    264772.00
   10196.710     90975.00    264614.00
   10200.310     90943.00    263931.00
   10203.960     91208.00    264444.00
   10207.620     92090.00    266181.00
