#XDI/1.1  GSE/1.0
# Column.1: energy eV
# Column.2: itrans
# Column.3: i0
# Scan.end_time: 2006-12-17 11:37:38
# Scan.start_time: 2006-12-17 11:19:12
# Element.symbol:  Zn
# Element.edge:  K
# Facility.Name:  APS
# Beamline.Name:  13-BM-D
# Beamline.xray_source:  bending magnet
# Mono.dspacing:  3.13555
# Mono.name: Si 111
# Beamline.Storage_Ring_Current: 99.1972 || S:SRcurrentAI.VAL
# Beamline.FOE_Mono_angle_readback: 12.0648 || 13BMA:m17.RBV
# Beamline.Mono_Energy_drive_val: 9459.0000 || 13BMA:E:Energy.VAL
# Beamline.Mono_Energy_readback: 9453.9983 || 13BMA:E:E_RBV
# Beamline.Mono_Beam_Offset: 21.0000 || 13BMA:E:height.VAL
# Beamline.I0_sensitivity_value: 10 || 13BMD:A3sens_num.VAL
# Beamline.I0_sensitivity_value: nA/V || 13BMD:A3sens_unit.VAL
# Beamline.I1_sensitivity_value: 2 || 13BMD:A2sens_num.VAL
# Beamline.I1_sensitivity_value: nA/V || 13BMD:A2sens_unit.VAL
# Beamline.FOE_Mono_Yout: 11.0387 || 13BMA:m10.VAL
# Beamline.FOE_Mono_Yin: 11.2521 || 13BMA:m11.VAL
# Beamline.FOE_Mono_Yup: 10.2891 || 13BMA:m12.VAL
# Beamline.FOE_Mono_Cage_Y: 0.000 || 13BMA:m13.VAL
# Beamline.FOE_Mono_Z: 52.577 || 13BMA:m14.VAL
# Beamline.FOE_Mono_angle: 12.0648 || 13BMA:m17.VAL
# Beamline.BMD_Horiz_Width: 6.000 || 13BMD:BMDHt2.C
# Beamline.BMD_Horiz_Center: 1.000 || 13BMD:BMDHt2.D
# Beamline.BMD_Vertical_Width: 1.000 || 13BMD:BMDVt2.C
# Beamline.BMD_Vertical_Center: -10.900 || 13BMD:BMDVt2.D
# Beamline.Sample_X: 44.259 || 13BMD:m70.VAL
# Beamline.Sample_Z__focus: 0.000 || 13BMD:m33.VAL
# Beamline.Sample_Y__height: 28.099 || 13BMD:m34.VAL
# Beamline.CCD_Z: 87.500 || 13BMD:m35.VAL
# Beamline.Hori__slit_X: 25.000 || 13BMD:m27.VAL
# Beamline.V_Bottom: 0.000 || 13BMD:m28.VAL
# Beamline.Hw_UpStream: 1000 || 13BMD:m78.VAL
# Beamline.Vp_UpStream: 944 || 13BMD:m79.VAL
# Beamline.Vw_UpStream: -165400 || 13BMD:m80.VAL
# ScanParameters.Start: Scan.Member: Value
# ScanParameters.E0: 9659.00
# ScanParameters.Legend: Start       Stop       Step       Npts       Time   Kspace?
# ScanParameters.Region1: -200.00    -10.000     5.0000     39.000     2.0000   0
# ScanParameters.Region2: -10.000     25.000    0.25000     141.00     2.0000   0
# ScanParameters.Region3: 2.5616     12.000   0.039993     237.00     2.0000   1
# ScanParameters.End: here
#-------------------------
#  energy  itrans  i0
    9459.017    190350.00    287575.00 
    9463.730    188245.00    283337.00 
    9468.952    186936.00    280435.00 
    9473.986    186527.00    279428.00 
    9479.026    186334.00    278263.00 
    9483.994    186354.00    277510.00 
    9489.005    186584.00    276967.00 
    9494.022    187012.00    276675.00 
    9499.006    187450.00    276513.00 
    9503.995    187873.00    276197.00 
    9508.988    188324.00    276168.00 
    9513.989    188919.00    276219.00 
    9518.993    189653.00    276390.00 
    9524.005    190168.00    276347.00 
    9529.020    190819.00    276536.00 
    9534.001    191343.00    276454.00 
    9538.988    191789.00    276333.00 
    9544.021    192368.00    276466.00 
    9549.019    192977.00    276447.00 
    9554.021    193756.00    276803.00 
    9558.990    194062.00    276544.00 
    9564.006    194534.00    276433.00 
    9569.024    194870.00    276193.00 
    9574.010    194389.00    274663.00 
    9579.000    195802.00    275978.00 
    9583.996    197155.00    277256.00 
    9588.997    197482.00    277012.00 
    9594.004    197668.00    276708.00 
    9599.016    198007.00    276462.00 
    9603.993    198284.00    276277.00 
    9609.016    198573.00    276190.00 
    9614.004    198863.00    276092.00 
    9618.996    199205.00    276231.00 
    9623.995    199447.00    276337.00 
    9628.999    199261.00    276175.00 
    9634.009    198333.00    275182.00 
    9639.023    198547.00    276555.00 
    9644.002    196967.00    276609.00 
    9649.027    193322.00    276588.00 
    9649.269    193193.00    276949.00 
    9649.510    193051.00    277203.00 
    9649.752    193116.00    277655.00 
    9649.993    192835.00    277733.00 
    9650.275    192630.00    278009.00 
    9650.517    192353.00    278114.00 
    9650.797    192042.00    278180.00 
    9651.040    191655.00    278188.00 
    9651.241    191328.00    278268.00 
    9651.562    190823.00    278275.00 
    9651.765    190293.00    278173.00 
    9652.045    189862.00    278274.00 
    9652.246    189371.00    278333.00 
    9652.529    188857.00    278337.00 
    9652.810    188170.00    278307.00 
    9653.051    187562.00    278382.00 
    9653.252    186847.00    278340.00 
    9653.535    186158.00    278353.00 
    9653.776    185264.00    278409.00 
    9654.059    184389.00    278289.00 
    9654.300    183444.00    278199.00 
    9654.541    182392.00    278158.00 
    9654.742    181373.00    278163.00 
    9655.064    179986.00    278138.00 
    9655.266    178730.00    278186.00 
    9655.549    177359.00    278108.00 
    9655.750    175802.00    278060.00 
    9656.031    174224.00    278046.00 
    9656.274    172165.00    277914.00 
    9656.556    170443.00    277881.00 
    9656.797    168493.00    278028.00 
    9656.998    166378.00    278094.00 
    9657.241    163884.00    278097.00 
    9657.522    160453.00    277929.00 
    9657.764    157025.00    277916.00 
    9658.046    153241.00    277855.00 
    9658.248    148932.00    277986.00 
    9658.530    144234.00    278029.00 
    9658.771    137692.00    278079.00 
    9659.054    131622.00    278161.00 
    9659.296    124429.00    278117.00 
    9659.538    116146.00    278167.00 
    9659.739    106794.00    278145.00 
    9660.063     94303.00    278202.00 
    9660.304     82512.00    278168.00 
    9660.545     70797.00    278200.00 
    9660.788     58516.00    278238.00 
    9660.989     47258.00    278101.00 
    9661.271     36222.00    278141.00 
    9661.554     29114.00    278156.00 
    9661.796     23641.00    278155.00 
    9662.037     19962.00    278067.00 
    9662.278     17551.00    278208.00 
    9662.521     15859.00    278160.00 
    9662.804     14918.00    278208.00 
    9663.047     14088.00    278184.00 
    9663.288     13248.00    278171.00 
    9663.530     12340.00    278169.00 
    9663.771     11309.00    278124.00 
    9664.015     10588.00    278179.00 
    9664.297     10046.00    278114.00 
    9664.538      9773.00    278095.00 
    9664.781      9790.00    278085.00 
    9665.023     10225.00    278057.00 
    9665.265     10934.00    278011.00 
    9665.548     12012.00    277868.00 
    9665.790     13317.00    277651.00 
    9666.031     14968.00    277694.00 
    9666.274     16973.00    277904.00 
    9666.517     18599.00    277838.00 
    9666.799     20065.00    277557.00 
    9667.042     21259.00    277903.00 
    9667.283     22191.00    278147.00 
    9667.525     22785.00    278031.00 
    9667.769     22983.00    278094.00 
    9668.011     22839.00    278057.00 
    9668.293     22470.00    278032.00 
    9668.536     21937.00    278089.00 
    9668.818     21303.00    278075.00 
    9669.060     20920.00    278189.00 
    9669.304     20719.00    278204.00 
    9669.545     20756.00    278171.00 
    9669.787     20967.00    278147.00 
    9669.989     21262.00    278184.00 
    9670.272     21634.00    278212.00 
    9670.555     21847.00    278254.00 
    9670.757     21915.00    278354.00 
    9671.040     21764.00    278402.00 
    9671.242     21465.00    278262.00 
    9671.526     20994.00    278137.00 
    9671.769     20528.00    278080.00 
    9672.010     20105.00    277990.00 
    9672.252     19735.00    277992.00 
    9672.536     19423.00    278004.00 
    9672.738     19170.00    277885.00 
    9673.021     18953.00    277591.00 
    9673.304     18857.00    277645.00 
    9673.506     18834.00    277722.00 
    9673.790     18863.00    277578.00 
    9674.032     18962.00    277695.00 
    9674.274     19100.00    277774.00 
    9674.517     19261.00    277749.00 
    9674.760     19395.00    277642.00 
    9675.042     19567.00    277845.00 
    9675.244     19735.00    277990.00 
    9675.528     19884.00    278012.00 
    9675.771     19991.00    278067.00 
    9676.055     20045.00    278054.00 
    9676.297     20081.00    277974.00 
    9676.539     20062.00    278022.00 
    9676.781     20078.00    277949.00 
    9677.025     20068.00    277771.00 
    9677.268     20130.00    277720.00 
    9677.552     20223.00    277748.00 
    9677.794     20348.00    277898.00 
    9678.036     20510.00    277959.00 
    9678.279     20728.00    278041.00 
    9678.522     21008.00    277940.00 
    9678.806     21290.00    278051.00 
    9679.048     21610.00    277948.00 
    9679.292     21963.00    277973.00 
    9679.534     22349.00    277891.00 
    9679.776     22759.00    277836.00 
    9680.021     23081.00    277780.00 
    9680.304     23323.00    277588.00 
    9680.546     23610.00    277955.00 
    9680.748     23836.00    278068.00 
    9681.032     24011.00    278079.00 
    9681.275     24170.00    278086.00 
    9681.520     24282.00    278272.00 
    9681.762     24321.00    278264.00 
    9682.044     24345.00    278376.00 
    9682.288     24328.00    278263.00 
    9682.491     24228.00    278117.00 
    9682.773     24127.00    278266.00 
    9683.059     24046.00    278485.00 
    9683.301     23860.00    278350.00 
    9683.543     23698.00    278195.00 
    9683.788     23523.00    278201.00 
    9683.990     23377.00    278080.00 
    9684.800     22759.00    277761.00 
    9685.610     22307.00    277816.00 
    9686.421     21857.00    277878.00 
    9687.232     21462.00    277923.00 
    9688.084     21182.00    277774.00 
    9688.896     21175.00    277613.00 
    9689.787     21543.00    277662.00 
    9690.640     22205.00    277712.00 
    9691.531     23213.00    277686.00 
    9692.425     24412.00    277490.00 
    9693.318     25628.00    277753.00 
    9694.253     26536.00    277705.00 
    9695.187     26961.00    277476.00 
    9696.121     27245.00    277575.00 
    9697.096     27556.00    277717.00 
    9698.071     27890.00    277635.00 
    9699.047     28099.00    277578.00 
    9700.021     28100.00    277727.00 
    9701.039     27881.00    277517.00 
    9702.056     27564.00    277367.00 
    9703.072     27163.00    277499.00 
    9704.131     26426.00    277328.00 
    9705.189     25676.00    277532.00 
    9706.247     24755.00    277392.00 
    9707.347     23713.00    277455.00 
    9708.404     22928.00    277182.00 
    9709.545     22412.00    276504.00 
    9710.646     22320.00    276487.00 
    9711.787     22569.00    278242.00 
    9712.929     22652.00    278000.00 
    9714.070     22651.00    277791.00 
    9715.212     22521.00    277702.00 
    9716.395     22196.00    277605.00 
    9717.579     21694.00    277500.00 
    9718.803     21047.00    277570.00 
    9720.028     20408.00    277556.00 
    9721.253     19926.00    277481.00 
    9722.478     19626.00    277644.00 
    9723.704     19402.00    277638.00 
    9724.930     19311.00    277665.00 
    9726.197     19297.00    277436.00 
    9727.546     19396.00    277068.00 
    9728.855     19569.00    274670.00 
    9730.165     20337.00    278612.00 
    9731.475     20934.00    279302.00 
    9732.783     21380.00    278816.00 
    9734.176     21843.00    278089.00 
    9735.527     22281.00    277825.00 
    9736.880     22755.00    277649.00 
    9738.231     23128.00    277492.00 
    9739.625     23455.00    277418.00 
    9741.021     23763.00    277512.00 
    9742.496     24040.00    277348.00 
    9743.933     24410.00    277508.00 
    9745.368     24797.00    277048.00 
    9746.806     25168.00    277279.00 
    9748.283     25473.00    277346.00 
    9749.804     25654.00    277490.00 
    9751.242     25659.00    277550.00 
    9752.804     25525.00    277352.00 
    9754.244     25329.00    277302.00 
    9755.642     25091.00    277079.00 
    9757.329     24924.00    277263.00 
    9758.852     24861.00    277231.00 
    9760.457     24990.00    277190.00 
    9762.021     25208.00    277246.00 
    9763.671     25452.00    277354.00 
    9765.277     25606.00    277270.00 
    9766.885     25589.00    277316.00 
    9768.494     25403.00    277244.00 
    9770.143     25065.00    277209.00 
    9771.754     24621.00    277090.00 
    9773.487     23851.00    275804.00 
    9775.098     22886.00    272063.00 
    9776.832     22974.00    280845.00 
    9778.527     22522.00    279889.00 
    9780.223     22278.00    278713.00 
    9781.959     22220.00    278276.00 
    9783.654     22151.00    277735.00 
    9785.477     21978.00    276453.00 
    9787.174     21973.00    277735.00 
    9788.995     21876.00    277538.00 
    9790.776     21871.00    277352.00 
    9792.561     22097.00    277289.00 
    9794.384     22502.00    277062.00 
    9796.167     22943.00    277147.00 
    9797.994     23366.00    277186.00 
    9799.901     23760.00    276755.00 
    9801.771     24116.00    276248.00 
    9803.641     24595.00    277087.00 
    9805.469     24942.00    277310.00 
    9807.382     25197.00    277167.00 
    9809.295     25347.00    277270.00 
    9811.209     25376.00    277167.00 
    9813.124     25387.00    277256.00 
    9815.122     25288.00    277026.00 
    9817.039     25189.00    277175.00 
    9819.039     25019.00    277169.00 
    9820.957     24898.00    277067.00 
    9822.958     24940.00    277066.00 
    9824.963     25077.00    276889.00 
    9827.007     25284.00    276826.00 
    9829.011     25360.00    275787.00 
    9831.101     25572.00    277032.00 
    9833.106     25591.00    276893.00 
    9835.197     25633.00    276773.00 
    9837.248     25723.00    276879.00 
    9839.340     25848.00    276890.00 
    9841.476     26010.00    276847.00 
    9843.570     26168.00    276844.00 
    9845.707     26219.00    276724.00 
    9847.846     25930.00    274056.00 
    9849.984     26027.00    276559.00 
    9852.208     26118.00    279210.00 
    9854.391     25840.00    278590.00 
    9856.575     25608.00    278091.00 
    9858.761     25382.00    277883.00 
    9860.947     25147.00    277717.00 
    9863.176     24934.00    277718.00 
    9865.405     24848.00    277732.00 
    9867.637     24836.00    277631.00 
    9869.954     24936.00    277397.00 
    9872.229     25114.00    277370.00 
    9874.464     25254.00    277414.00 
    9876.782     25371.00    276979.00 
    9879.103     25415.00    276247.00 
    9881.384     25654.00    277516.00 
    9883.749     25755.00    277277.00 
    9886.073     25939.00    277137.00 
    9888.440     26204.00    277019.00 
    9890.810     26488.00    276729.00 
    9893.221     26730.00    276215.00 
    9895.634     27088.00    277125.00 
    9898.049     27272.00    276909.00 
    9900.464     27438.00    277052.00 
    9902.882     27488.00    276984.00 
    9905.300     27502.00    276948.00 
    9907.761     27453.00    276932.00 
    9910.225     27451.00    276929.00 
    9912.730     27532.00    276922.00 
    9915.239     27642.00    277106.00 
    9917.750     27738.00    276957.00 
    9920.260     27673.00    275670.00 
    9922.771     27900.00    277361.00 
    9925.286     27971.00    277269.00 
    9927.842     27975.00    277052.00 
    9930.400     28004.00    277151.00 
    9932.961     28013.00    277013.00 
    9935.564     28066.00    277085.00 
    9938.214     28155.00    277210.00 
    9940.776     28216.00    277185.00 
    9943.429     28290.00    277140.00 
    9946.038     28398.00    277106.00 
    9948.691     28454.00    277017.00 
    9951.391     28482.00    276842.00 
    9954.047     28504.00    276830.00 
    9956.747     28469.00    276848.00 
    9959.450     28461.00    276864.00 
    9962.153     28467.00    276855.00 
    9964.860     28556.00    276949.00 
    9967.653     28583.00    276785.00 
    9970.405     28638.00    276787.00 
    9973.157     28719.00    276891.00 
    9975.912     28786.00    276682.00 
    9978.712     28930.00    276900.00 
    9981.470     28983.00    276569.00 
    9984.272     28729.00    272842.00 
    9987.120     29457.00    278841.00 
    9989.926     29502.00    278209.00 
    9992.776     29559.00    277699.00 
    9995.628     29681.00    277277.00 
    9998.524     29859.00    277170.00 
   10001.380     29966.00    276484.00 
   10004.330     30142.00    276430.00 
   10007.230     30436.00    277656.00 
   10010.130     30560.00    277379.00 
   10013.080     30674.00    277049.00 
   10015.990     30805.00    277166.00 
   10018.940     30895.00    276957.00 
   10022.030     30987.00    277110.00 
   10024.900     31111.00    277030.00 
   10027.940     31190.00    277043.00 
   10030.720     31233.00    276738.00 
   10033.900     31318.00    276801.00 
   10036.960     31381.00    276951.00 
   10040.010     31423.00    276821.00 
   10043.060     31465.00    276727.00 
   10046.160     31547.00    276766.00 
   10049.180     31589.00    276660.00 
   10052.280     31655.00    276633.00 
   10055.390     31754.00    276649.00 
   10058.500     31837.00    276794.00 
   10061.600     31936.00    276742.00 
   10064.800     32000.00    276590.00 
   10068.000     32099.00    276502.00 
   10071.120     32214.00    276714.00 
   10074.280     32287.00    276553.00 
   10077.450     32322.00    276473.00 
   10080.660     32384.00    276416.00 
   10083.870     32486.00    276380.00 
   10087.080     32554.00    276332.00 
   10090.300     32655.00    276403.00 
   10093.560     32767.00    276460.00 
   10096.820     32917.00    276598.00 
   10100.090     33050.00    276618.00 
   10103.360     33219.00    276889.00 
   10106.720     33316.00    276471.00 
   10110.040     33493.00    276867.00 
   10113.350     33635.00    276952.00 
   10116.680     33769.00    276890.00 
   10119.960     33876.00    276825.00 
   10123.370     34032.00    277058.00 
   10126.700     34115.00    277017.00 
   10130.160     34241.00    276975.00 
   10133.500     34348.00    276788.00 
   10136.920     34517.00    277015.00 
   10140.300     34702.00    276943.00 
   10143.730     34874.00    277018.00 
   10147.250     35001.00    276813.00 
   10150.460     35112.00    276883.00 
   10154.120     35224.00    276800.00 
   10157.600     35322.00    276580.00 
   10161.090     35434.00    276451.00 
   10164.620     35532.00    276338.00 
   10168.110     35632.00    276273.00 
   10171.690     35734.00    276174.00 
   10175.190     35823.00    276226.00 
   10178.730     35915.00    276202.00 
   10182.370     36012.00    276285.00 
   10185.870     36046.00    275731.00 
   10189.510     36246.00    276406.00 
   10193.060     36314.00    276221.00 
   10196.710     36449.00    276335.00 
   10200.360     36413.00    275360.00 
   10204.010     36646.00    275993.00 
   10207.620     36954.00    277608.00 
