#XDI/1.1  GSE/1.0
# Column.1: energy eV
# Column.2: itrans
# Column.3: i0
# Scan.end_time: 2006-12-17 16:29:33
# Scan.start_time: 2006-12-17 16:10:56
# Element.symbol:  Zn
# Element.edge:  K
# Mono.d_spacing:  3.13555
# Mono.name: Si 111
# Sample.name: hopeite
# Sample.formula: Zn3(PO4)2Â·4H2O
# Sample.prep: powder on tape, many layers
# Sample.temperature: room temperature
# Beamline.Name:  13-BM-D
# Beamline.xray_source:  bending magnet
# Beamline.collimation: none
# Beamline.focusing: no
# Beamline.harmonic_rejection: Rh-coated mirror, detuned
# Beamline.Storage_Ring_Current: 95.456 mA
# Facility.name: APS
# Facility.energy: 7.00 GeV
# Facility.xray_source: APS bending magnet
# Detector.I0: 10 nA/V 10 cm N2
# Detector.I1: 2 nA/V 10 cm Ar (?)
# ScanParameters.E0: 9659.00
# ScanParameters.Legend: Start       Stop       Step       Npts       Time   Kspace?
# ScanParameters.Region1: -200.00    -10.000     5.0000     39.000     2.0000   0
# ScanParameters.Region2: -10.000     25.000    0.25000     141.00     2.0000   0
# ScanParameters.Region3: 2.5616     12.000   0.039993     237.00     2.0000   1
#-------------------------
#  energy  itrans  i0
    9459.017    193898.00    257150.00
    9464.002    196536.00    260063.00
    9468.992    198290.00    261767.00
    9473.986    199932.00    263360.00
    9479.026    201318.00    264569.00
    9483.994    202199.00    265019.00
    9489.005    202886.00    265237.00
    9494.022    203623.00    265664.00
    9499.006    204195.00    265817.00
    9503.995    204829.00    265982.00
    9508.988    205507.00    266211.00
    9514.028    206027.00    266183.00
    9518.993    206665.00    266395.00
    9524.005    207141.00    266429.00
    9529.020    207587.00    266344.00
    9534.001    208004.00    266270.00
    9538.988    208294.00    266009.00
    9544.021    208986.00    266166.00
    9549.019    209384.00    266059.00
    9554.021    209779.00    265993.00
    9558.990    210248.00    265961.00
    9564.006    210692.00    265891.00
    9569.024    211138.00    265796.00
    9574.010    210374.00    264247.00
    9579.000    211925.00    265647.00
    9583.996    213223.00    266790.00
    9588.997    213391.00    266474.00
    9594.004    213686.00    266312.00
    9599.016    213981.00    266187.00
    9603.993    214190.00    266077.00
    9609.016    214538.00    266025.00
    9614.004    214825.00    266013.00
    9618.996    215154.00    266101.00
    9623.995    215390.00    266137.00
    9628.999    215521.00    266125.00
    9634.009    214429.00    264976.00
    9639.023    215159.00    266410.00
    9644.002    214029.00    266381.00
    9649.027    211558.00    266250.00
    9649.269    211654.00    266628.00
    9649.510    211789.00    267156.00
    9649.752    211911.00    267488.00
    9649.993    211759.00    267638.00
    9650.275    211541.00    267744.00
    9650.517    211425.00    267857.00
    9650.797    211194.00    267856.00
    9651.040    210939.00    267899.00
    9651.280    210686.00    267854.00
    9651.521    210281.00    267789.00
    9651.765    209971.00    267745.00
    9652.006    209716.00    267759.00
    9652.246    209369.00    267725.00
    9652.529    208991.00    267686.00
    9652.771    208599.00    267686.00
    9653.051    208206.00    267661.00
    9653.252    207704.00    267492.00
    9653.535    207305.00    267372.00
    9653.776    206793.00    267420.00
    9654.059    206443.00    267588.00
    9654.260    205966.00    267591.00
    9654.501    205323.00    267463.00
    9654.742    204703.00    267302.00
    9655.024    204052.00    267449.00
    9655.266    203568.00    267647.00
    9655.549    202803.00    267540.00
    9655.750    201952.00    267408.00
    9655.991    201213.00    267393.00
    9656.274    200279.00    267439.00
    9656.556    199554.00    267594.00
    9656.757    198543.00    267499.00
    9656.998    197419.00    267406.00
    9657.241    196260.00    267340.00
    9657.522    194930.00    267561.00
    9657.805    193463.00    267575.00
    9658.046    191838.00    267659.00
    9658.248    190062.00    267697.00
    9658.530    188029.00    267758.00
    9658.812    185332.00    267760.00
    9659.054    182870.00    267788.00
    9659.296    179989.00    267888.00
    9659.538    176639.00    268067.00
    9659.779    172979.00    268157.00
    9660.063    167586.00    268017.00
    9660.304    162643.00    268146.00
    9660.545    157297.00    268154.00
    9660.788    151197.00    267918.00
    9660.989    144711.00    267987.00
    9661.271    136581.00    268174.00
    9661.554    129261.00    267986.00
    9661.796    121283.00    267864.00
    9662.037    112981.00    267748.00
    9662.278    104336.00    267653.00
    9662.521     94502.00    267628.00
    9662.804     85985.00    267568.00
    9663.047     78318.00    267551.00
    9663.288     71353.00    267344.00
    9663.530     65611.00    267193.00
    9663.771     60214.00    267362.00
    9664.015     56831.00    267366.00
    9664.297     54080.00    267176.00
    9664.538     51918.00    267305.00
    9664.781     50184.00    267389.00
    9665.023     48560.00    267181.00
    9665.265     47605.00    267282.00
    9665.508     46963.00    267439.00
    9665.790     46588.00    267321.00
    9666.031     46488.00    267305.00
    9666.274     46689.00    267439.00
    9666.517     47003.00    267520.00
    9666.799     47316.00    267507.00
    9667.042     47661.00    267409.00
    9667.283     47934.00    267345.00
    9667.525     48307.00    267377.00
    9667.769     48616.00    267520.00
    9668.011     48889.00    267579.00
    9668.293     49162.00    267570.00
    9668.536     49491.00    267630.00
    9668.778     49880.00    267614.00
    9669.060     50313.00    267702.00
    9669.304     50842.00    267642.00
    9669.545     51455.00    267708.00
    9669.787     52230.00    267700.00
    9669.989     53078.00    267646.00
    9670.272     54354.00    267742.00
    9670.515     55565.00    267734.00
    9670.757     56871.00    267730.00
    9671.040     58281.00    267750.00
    9671.242     59650.00    267805.00
    9671.526     61069.00    267750.00
    9671.769     62185.00    267791.00
    9672.010     62935.00    267676.00
    9672.252     63496.00    267651.00
    9672.536     63877.00    267717.00
    9672.738     64081.00    267675.00
    9673.021     64144.00    267719.00
    9673.304     64057.00    267875.00
    9673.506     63985.00    267949.00
    9673.790     63793.00    267787.00
    9674.032     63680.00    267680.00
    9674.274     63623.00    267641.00
    9674.558     63703.00    267730.00
    9674.760     63891.00    267492.00
    9675.042     64195.00    267636.00
    9675.244     64550.00    267685.00
    9675.528     65077.00    267594.00
    9675.771     65575.00    267516.00
    9676.055     66072.00    267469.00
    9676.297     66571.00    267553.00
    9676.539     66999.00    267526.00
    9676.781     67354.00    267540.00
    9677.025     67624.00    267513.00
    9677.268     67788.00    267562.00
    9677.552     67863.00    267500.00
    9677.794     67874.00    267525.00
    9678.036     67891.00    267465.00
    9678.279     67857.00    267295.00
    9678.522     67865.00    267139.00
    9678.806     67892.00    267293.00
    9679.048     68022.00    267377.00
    9679.292     68187.00    267320.00
    9679.534     68401.00    267153.00
    9679.776     68755.00    267290.00
    9680.021     69098.00    267417.00
    9680.304     69411.00    267389.00
    9680.546     69798.00    267330.00
    9680.748     70161.00    267292.00
    9681.032     70579.00    267364.00
    9681.315     70994.00    267476.00
    9681.520     71382.00    267567.00
    9681.762     71734.00    267611.00
    9682.044     72081.00    267739.00
    9682.288     72409.00    267885.00
    9682.531     72706.00    267982.00
    9682.773     72946.00    267846.00
    9683.059     73246.00    268078.00
    9683.301     73387.00    267983.00
    9683.543     73619.00    268088.00
    9683.788     73844.00    268039.00
    9684.030     73988.00    267794.00
    9684.800     74849.00    267638.00
    9685.610     75808.00    267715.00
    9686.421     77130.00    267552.00
    9687.232     78701.00    267476.00
    9688.084     80438.00    267341.00
    9688.896     81789.00    267208.00
    9689.787     83059.00    267361.00
    9690.640     84013.00    267411.00
    9691.531     84435.00    267162.00
    9692.425     84399.00    267093.00
    9693.318     83910.00    267143.00
    9694.253     83102.00    267212.00
    9695.187     81992.00    267024.00
    9696.121     80869.00    267123.00
    9697.096     79756.00    267234.00
    9698.071     78701.00    267044.00
    9699.047     77705.00    267172.00
    9700.021     76836.00    267216.00
    9701.039     75952.00    267217.00
    9702.056     74949.00    267210.00
    9703.072     73837.00    267222.00
    9704.131     72544.00    267324.00
    9705.189     71456.00    267281.00
    9706.247     70563.00    267206.00
    9707.347     69923.00    267166.00
    9708.364     69624.00    267187.00
    9709.545     69312.00    266393.00
    9710.646     69169.00    266315.00
    9711.787     69466.00    268197.00
    9712.929     69113.00    267787.00
    9714.070     68764.00    267511.00
    9715.212     68428.00    267335.00
    9716.395     68068.00    267324.00
    9717.579     67741.00    267184.00
    9718.803     67453.00    267130.00
    9720.028     67408.00    267277.00
    9721.253     67393.00    267336.00
    9722.478     67467.00    267267.00
    9723.704     67608.00    267116.00
    9724.930     67879.00    267097.00
    9726.237     68274.00    267027.00
    9727.342     68553.00    266579.00
    9728.855     68480.00    264063.00
    9730.124     69906.00    267889.00
    9731.475     70749.00    268644.00
    9732.825     71168.00    268125.00
    9734.176     71632.00    267627.00
    9735.527     72118.00    267418.00
    9736.880     72528.00    267078.00
    9738.231     72844.00    266817.00
    9739.625     73187.00    266840.00
    9741.021     73506.00    266817.00
    9742.496     73769.00    266588.00
    9743.933     74028.00    266692.00
    9745.368     74234.00    266334.00
    9746.642     74463.00    266424.00
    9748.242     74783.00    266695.00
    9749.804     74948.00    266900.00
    9751.242     74939.00    266734.00
    9752.804     74946.00    266843.00
    9754.244     74888.00    266914.00
    9755.807     74804.00    267077.00
    9757.370     74719.00    267167.00
    9758.893     74577.00    267212.00
    9760.416     74503.00    267291.00
    9762.021     74420.00    267275.00
    9763.671     74389.00    267303.00
    9765.277     74406.00    267362.00
    9766.885     74408.00    267393.00
    9768.494     74364.00    267262.00
    9770.103     74259.00    266999.00
    9771.754     74126.00    266778.00
    9773.487     73628.00    265542.00
    9775.139     72423.00    262019.00
    9776.832     74376.00    270207.00
    9778.527     74010.00    269014.00
    9780.223     73644.00    268050.00
    9781.959     73484.00    267352.00
    9783.654     73370.00    266640.00
    9785.477     73099.00    265425.00
    9787.174     73422.00    266531.00
    9788.995     73402.00    266443.00
    9790.776     73397.00    266386.00
    9792.561     73364.00    266288.00
    9794.384     73353.00    266120.00
    9796.167     73387.00    266629.00
    9797.994     73464.00    266524.00
    9799.901     73505.00    266402.00
    9801.771     73457.00    265846.00
    9803.641     73773.00    266612.00
    9805.510     73852.00    266629.00
    9807.382     73952.00    266719.00
    9809.295     74030.00    266541.00
    9811.209     74168.00    266465.00
    9813.124     74308.00    266443.00
    9815.122     74576.00    266695.00
    9817.039     74705.00    266670.00
    9819.039     74955.00    266931.00
    9820.957     75116.00    266810.00
    9822.958     75333.00    267056.00
    9824.963     75526.00    266743.00
    9827.007     75743.00    266943.00
    9829.011     75594.00    265947.00
    9831.060     76118.00    267246.00
    9833.106     76237.00    267141.00
    9835.239     76311.00    267034.00
    9837.248     76389.00    267009.00
    9839.340     76431.00    266943.00
    9841.476     76406.00    266780.00
    9843.570     76383.00    266698.00
    9845.749     76359.00    266552.00
    9847.846     75559.00    264056.00
    9849.984     76105.00    266142.00
    9852.208     76880.00    268542.00
    9854.391     76754.00    268001.00
    9856.575     76672.00    267543.00
    9858.761     76695.00    267196.00
    9860.947     76737.00    266920.00
    9863.176     76865.00    266859.00
    9865.405     76890.00    266678.00
    9867.637     76941.00    266627.00
    9869.954     77013.00    266489.00
    9872.187     77074.00    266465.00
    9874.505     77174.00    266507.00
    9876.782     77177.00    266387.00
    9879.103     76961.00    265403.00
    9881.425     77473.00    266880.00
    9883.790     77426.00    266564.00
    9886.073     77478.00    266408.00
    9888.482     77553.00    266283.00
    9890.810     77658.00    266429.00
    9893.179     77630.00    265788.00
    9895.634     78026.00    266711.00
    9898.049     78043.00    266481.00
    9900.676     78122.00    266355.00
    9902.838     78210.00    266556.00
    9905.342     78325.00    266530.00
    9907.803     78396.00    266559.00
    9910.268     78509.00    266699.00
    9912.730     78624.00    266730.00
    9915.282     78697.00    266806.00
    9917.750     78771.00    266661.00
    9920.303     78527.00    265447.00
    9922.771     79159.00    267167.00
    9925.286     79270.00    267122.00
    9927.842     79327.00    267016.00
    9930.444     79398.00    266241.00
    9933.003     79600.00    266863.00
    9935.607     79770.00    267021.00
    9938.214     79930.00    266860.00
    9940.820     80142.00    266881.00
    9943.471     80418.00    267050.00
    9946.081     80513.00    266826.00
    9948.734     80611.00    266795.00
    9951.391     80705.00    266790.00
    9954.089     80779.00    266654.00
    9956.791     80838.00    266464.00
    9959.493     80956.00    266520.00
    9962.198     81054.00    266431.00
    9964.902     81135.00    266216.00
    9967.610     81143.00    266123.00
    9970.405     81311.00    266047.00
    9973.157     81468.00    266077.00
    9975.955     81574.00    265926.00
    9978.669     81788.00    266189.00
    9981.513     81847.00    266001.00
    9984.315     80744.00    262414.00
    9987.163     82819.00    268504.00
    9989.969     82683.00    267694.00
    9992.819     82686.00    267267.00
    9995.671     82830.00    267047.00
    9998.569     82775.00    266730.00
   10001.420     82672.00    266125.00
   10004.330     82706.00    265925.00
   10007.230     83184.00    267187.00
   10010.170     83320.00    266937.00
   10013.080     83423.00    266646.00
   10016.030     83533.00    266657.00
   10018.980     83505.00    266603.00
   10022.030     83638.00    266710.00
   10024.940     83692.00    266520.00
   10027.940     83810.00    266384.00
   10030.900     83983.00    266378.00
   10033.950     84145.00    266285.00
   10037.000     84290.00    266164.00
   10040.050     84453.00    266116.00
   10043.060     84623.00    266093.00
   10046.120     84755.00    266102.00
   10049.220     84930.00    266160.00
   10052.280     85031.00    266303.00
   10055.430     85214.00    266444.00
   10058.540     85331.00    266463.00
   10061.650     85467.00    266490.00
   10064.800     85725.00    266594.00
   10067.960     85846.00    266225.00
   10071.120     85949.00    266694.00
   10074.280     86012.00    266658.00
   10077.490     86124.00    266694.00
   10080.660     86275.00    266630.00
   10083.870     86489.00    266657.00
   10087.130     86655.00    266608.00
   10090.300     86681.00    266548.00
   10093.600     86746.00    266379.00
   10096.870     86923.00    266309.00
   10100.090     87086.00    266374.00
   10103.400     87177.00    266148.00
   10106.720     87195.00    265810.00
   10110.040     87567.00    266293.00
   10113.350     87737.00    266100.00
   10116.680     87882.00    265921.00
   10120.040     88102.00    266038.00
   10123.420     88216.00    266042.00
   10126.740     88379.00    265971.00
   10130.160     88563.00    265955.00
   10133.500     88694.00    266033.00
   10136.960     88929.00    265981.00
   10140.300     89181.00    266055.00
   10143.780     89236.00    266021.00
   10147.250     89374.00    266080.00
   10150.640     89549.00    266198.00
   10154.120     89792.00    266188.00
   10157.650     89966.00    266371.00
   10161.130     90100.00    266380.00
   10164.620     90274.00    266468.00
   10168.160     90470.00    266475.00
   10171.650     90694.00    266395.00
   10175.240     90780.00    266309.00
   10178.730     90839.00    266362.00
   10182.370     91009.00    266418.00
   10185.870     91068.00    265932.00
   10189.510     91483.00    266526.00
   10193.060     91522.00    266201.00
   10196.710     91555.00    266244.00
   10200.310     91366.00    265198.00
   10203.960     91653.00    265651.00
   10207.620     92557.00    267417.00
