#XDI/1.1  GSE/1.0
# Column.1: energy eV
# Column.2: itrans
# Column.3: i0
# Scan.end_time: 2006-12-17 07:32:23
# Scan.start_time: 2006-12-17 07:14:02
# Element.symbol:  Zn
# Element.edge:  K
# Mono.d_spacing:  3.13555
# Mono.name: Si 111
# Sample.name: sphalerite
# Sample.formula: ZnS
# Sample.prep: powder on tape, many layers
# Sample.temperature: room temperature
# Beamline.Name:  13-BM-D
# Beamline.xray_source:  bending magnet
# Beamline.collimation: none
# Beamline.focusing: no
# Beamline.harmonic_rejection: Rh-coated mirror, detuned
# Beamline.Storage_Ring_Current: 93.4581 mA
# Facility.name: APS
# Facility.energy: 7.00 GeV
# Facility.xray_source: APS bending magnet
# Detector.I0: 10 nA/V 10 cm N2
# Detector.I1: 2 nA/V 10 cm Ar (?)
# ScanParameters.E0: 9659.00
# ScanParameters.Legend: Start       Stop       Step       Npts       Time   Kspace?
# ScanParameters.Region1: -200.00    -10.000     5.0000     39.000     2.0000   0
# ScanParameters.Region2: -10.000     25.000    0.25000     141.00     2.0000   0
# ScanParameters.Region3: 2.5616     12.000   0.039993     237.00     2.0000   1
#-------------------------
#  energy  itrans  i0
    9459.017    213646.00    270843.00
    9463.885    211194.00    267067.00
    9468.992    209675.00    264555.00
    9474.024    208810.00    262903.00
    9479.026    208486.00    261879.00
    9483.994    208535.00    261262.00
    9489.005    208743.00    260768.00
    9494.022    209178.00    260665.00
    9499.006    209555.00    260379.00
    9503.995    210149.00    260310.00
    9508.988    210690.00    260316.00
    9513.989    211301.00    260382.00
    9518.993    212002.00    260413.00
    9524.005    212661.00    260529.00
    9529.020    213123.00    260427.00
    9534.001    213992.00    260648.00
    9538.988    214354.00    260378.00
    9544.021    215164.00    260625.00
    9549.019    215554.00    260485.00
    9554.021    216217.00    260534.00
    9558.990    216701.00    260418.00
    9564.006    217314.00    260404.00
    9569.024    217760.00    260320.00
    9574.010    216804.00    258504.00
    9579.000    218842.00    260360.00
    9583.996    220102.00    261196.00
    9588.997    220197.00    260715.00
    9594.004    220856.00    260836.00
    9599.016    221020.00    260513.00
    9603.993    221238.00    260335.00
    9609.016    221564.00    260268.00
    9614.004    221953.00    260337.00
    9618.996    222043.00    260120.00
    9623.995    222095.00    260056.00
    9628.999    222199.00    260120.00
    9634.009    221248.00    259195.00
    9639.023    221624.00    260486.00
    9644.002    219902.00    260228.00
    9649.027    216510.00    260332.00
    9649.269    216458.00    260689.00
    9649.510    216763.00    261264.00
    9649.752    216745.00    261612.00
    9649.993    216622.00    261826.00
    9650.315    216574.00    262165.00
    9650.557    216333.00    262240.00
    9650.757    216170.00    262355.00
    9651.040    215929.00    262492.00
    9651.241    215639.00    262567.00
    9651.562    215085.00    262413.00
    9651.805    214721.00    262521.00
    9652.045    214449.00    262684.00
    9652.286    213755.00    262468.00
    9652.529    213191.00    262374.00
    9652.771    212540.00    262437.00
    9653.011    211933.00    262466.00
    9653.252    211179.00    262352.00
    9653.535    210293.00    262207.00
    9653.776    209413.00    262148.00
    9654.059    208507.00    262060.00
    9654.260    207490.00    261916.00
    9654.501    206293.00    261704.00
    9654.783    205195.00    261741.00
    9655.024    203733.00    261655.00
    9655.306    202428.00    261607.00
    9655.507    201092.00    261741.00
    9655.750    199456.00    261540.00
    9656.031    198072.00    261774.00
    9656.314    196053.00    261639.00
    9656.556    194320.00    261746.00
    9656.757    192528.00    261996.00
    9656.998    190012.00    261915.00
    9657.241    187489.00    261922.00
    9657.522    183929.00    261960.00
    9657.805    180321.00    261937.00
    9658.006    176211.00    261989.00
    9658.287    171823.00    262065.00
    9658.530    166538.00    262044.00
    9658.812    159471.00    262112.00
    9659.054    152400.00    262050.00
    9659.296    144319.00    262105.00
    9659.498    134930.00    262138.00
    9659.739    124264.00    262080.00
    9660.063    109592.00    262077.00
    9660.304     96066.00    262110.00
    9660.545     82402.00    262115.00
    9660.788     69058.00    262132.00
    9660.989     57046.00    262111.00
    9661.271     45641.00    262092.00
    9661.554     38156.00    262083.00
    9661.796     33089.00    262061.00
    9662.037     29574.00    262103.00
    9662.238     27262.00    262088.00
    9662.521     25510.00    262053.00
    9662.804     24285.00    262043.00
    9663.047     23121.00    261988.00
    9663.248     21834.00    262006.00
    9663.530     20484.00    261975.00
    9663.771     19146.00    262005.00
    9664.055     18293.00    261958.00
    9664.297     17748.00    262036.00
    9664.498     17640.00    262058.00
    9664.741     17980.00    262010.00
    9665.023     19029.00    262067.00
    9665.265     20416.00    262081.00
    9665.548     22260.00    262030.00
    9665.790     24508.00    262096.00
    9665.991     26890.00    262087.00
    9666.274     29669.00    262124.00
    9666.557     31747.00    262144.00
    9666.759     33560.00    262225.00
    9667.002     34915.00    262308.00
    9667.283     35851.00    262326.00
    9667.525     36257.00    262249.00
    9667.769     36179.00    262115.00
    9668.051     35740.00    262047.00
    9668.253     35049.00    262136.00
    9668.536     34283.00    262031.00
    9668.778     33601.00    262047.00
    9669.020     33234.00    261959.00
    9669.304     33211.00    262012.00
    9669.545     33430.00    261988.00
    9669.747     33795.00    261843.00
    9670.031     34228.00    261730.00
    9670.272     34601.00    261718.00
    9670.515     34776.00    261828.00
    9670.757     34641.00    261790.00
    9671.000     34305.00    261711.00
    9671.242     33768.00    261718.00
    9671.526     33087.00    261902.00
    9671.809     32554.00    261985.00
    9672.050     32015.00    262010.00
    9672.294     31593.00    262010.00
    9672.496     31249.00    262029.00
    9672.738     30962.00    261974.00
    9673.021     30792.00    261965.00
    9673.304     30716.00    261966.00
    9673.506     30739.00    261967.00
    9673.790     30837.00    262045.00
    9673.992     31003.00    262059.00
    9674.314     31222.00    262039.00
    9674.517     31463.00    262118.00
    9674.800     31726.00    262098.00
    9675.002     31892.00    262068.00
    9675.285     32073.00    262095.00
    9675.528     32228.00    262076.00
    9675.811     32292.00    262055.00
    9676.055     32333.00    262066.00
    9676.297     32369.00    262043.00
    9676.539     32383.00    262123.00
    9676.781     32412.00    262166.00
    9677.025     32492.00    262293.00
    9677.308     32586.00    262256.00
    9677.552     32742.00    262128.00
    9677.754     32939.00    262091.00
    9678.036     33198.00    262080.00
    9678.279     33555.00    262207.00
    9678.522     33970.00    262201.00
    9678.806     34420.00    262184.00
    9679.048     34870.00    262158.00
    9679.292     35325.00    262046.00
    9679.534     35781.00    261976.00
    9679.776     36305.00    261963.00
    9680.061     36644.00    261858.00
    9680.304     36992.00    261829.00
    9680.546     37258.00    261728.00
    9680.790     37536.00    261722.00
    9681.032     37727.00    261887.00
    9681.315     37909.00    261993.00
    9681.560     37989.00    261986.00
    9681.802     38037.00    262049.00
    9682.044     37975.00    262031.00
    9682.288     37909.00    262029.00
    9682.531     37812.00    262033.00
    9682.773     37628.00    262089.00
    9683.059     37428.00    262193.00
    9683.301     37240.00    262296.00
    9683.543     37019.00    262250.00
    9683.746     36774.00    262152.00
    9683.990     36508.00    262020.00
    9684.800     35785.00    261979.00
    9685.610     35166.00    261938.00
    9686.421     34595.00    261962.00
    9687.232     34067.00    261975.00
    9688.084     33799.00    261990.00
    9688.896     33912.00    261942.00
    9689.787     34469.00    261919.00
    9690.640     35500.00    261966.00
    9691.531     36839.00    261872.00
    9692.425     38482.00    261911.00
    9693.318     39985.00    261830.00
    9694.253     41029.00    261760.00
    9695.187     41506.00    261586.00
    9696.121     41811.00    261625.00
    9697.096     42234.00    261697.00
    9698.071     42634.00    261475.00
    9699.047     42878.00    261497.00
    9700.021     42808.00    261531.00
    9701.039     42524.00    261386.00
    9702.056     42156.00    261537.00
    9703.072     41505.00    261371.00
    9704.131     40594.00    261423.00
    9705.189     39538.00    261416.00
    9706.247     38304.00    261522.00
    9707.347     36951.00    261325.00
    9708.404     36012.00    261436.00
    9709.505     35343.00    260396.00
    9710.646     35333.00    260882.00
    9711.787     35698.00    262303.00
    9712.929     35811.00    262025.00
    9714.070     35796.00    261789.00
    9715.212     35630.00    261790.00
    9716.395     35189.00    261787.00
    9717.537     34493.00    261574.00
    9718.803     33564.00    261419.00
    9720.028     32760.00    261560.00
    9721.253     32126.00    261490.00
    9722.478     31689.00    261364.00
    9723.704     31460.00    261579.00
    9724.930     31298.00    261245.00
    9726.237     31314.00    261101.00
    9727.546     31430.00    260479.00
    9728.855     31676.00    258353.00
    9730.124     32826.00    262494.00
    9731.475     33554.00    262727.00
    9732.783     34126.00    262148.00
    9734.136     34744.00    261795.00
    9735.487     35314.00    261651.00
    9736.880     35958.00    261560.00
    9738.231     36426.00    261346.00
    9739.625     36939.00    261463.00
    9740.856     37230.00    261267.00
    9742.455     37692.00    261358.00
    9743.933     38168.00    261350.00
    9745.368     38673.00    261106.00
    9746.806     39183.00    261247.00
    9748.283     39636.00    261526.00
    9749.804     39818.00    261471.00
    9751.242     39767.00    261446.00
    9752.804     39559.00    261352.00
    9754.244     39298.00    261307.00
    9755.807     39033.00    261374.00
    9757.329     38846.00    261322.00
    9758.852     38864.00    261388.00
    9760.457     39006.00    261227.00
    9762.021     39343.00    261300.00
    9763.671     39622.00    261136.00
    9765.277     39795.00    261255.00
    9766.885     39750.00    261082.00
    9768.494     39489.00    261008.00
    9770.103     39023.00    260916.00
    9771.754     38365.00    260709.00
    9773.487     37304.00    259299.00
    9775.098     36006.00    256287.00
    9776.832     36284.00    264146.00
    9778.527     35684.00    263023.00
    9780.223     35416.00    262273.00
    9781.959     35278.00    261638.00
    9783.654     35189.00    261312.00
    9785.477     34985.00    260432.00
    9787.174     34983.00    261698.00
    9788.995     34846.00    261547.00
    9790.735     34924.00    261455.00
    9792.561     35255.00    261412.00
    9794.384     35833.00    261346.00
    9796.167     36428.00    261354.00
    9797.994     37036.00    261350.00
    9799.901     37511.00    260833.00
    9801.563     37940.00    260556.00
    9803.641     38607.00    261226.00
    9805.469     39031.00    261280.00
    9807.382     39300.00    261125.00
    9809.295     39459.00    261129.00
    9811.042     39508.00    260956.00
    9813.124     39496.00    260963.00
    9815.122     39423.00    260964.00
    9817.039     39222.00    260899.00
    9819.039     39041.00    260980.00
    9820.957     38907.00    260987.00
    9822.958     38977.00    261003.00
    9824.963     39220.00    261075.00
    9827.007     39557.00    261279.00
    9829.011     39582.00    260079.00
    9831.060     40000.00    261578.00
    9833.106     40082.00    261646.00
    9835.197     40161.00    261585.00
    9837.248     40283.00    261510.00
    9839.340     40463.00    261410.00
    9841.476     40737.00    261455.00
    9843.570     40947.00    261486.00
    9845.749     40950.00    261054.00
    9847.846     40420.00    257904.00
    9849.943     40890.00    261638.00
    9852.208     40859.00    263096.00
    9854.391     40467.00    262235.00
    9856.575     40146.00    261917.00
    9858.761     39807.00    261548.00
    9860.947     39533.00    261408.00
    9863.176     39279.00    261190.00
    9865.405     39134.00    261059.00
    9867.637     39095.00    260876.00
    9869.954     39247.00    260793.00
    9872.187     39499.00    260856.00
    9874.505     39708.00    260792.00
    9876.782     39842.00    260716.00
    9879.103     39935.00    259979.00
    9881.425     40278.00    261249.00
    9883.749     40421.00    260981.00
    9886.073     40678.00    260958.00
    9888.440     41064.00    261041.00
    9890.810     41469.00    260954.00
    9893.221     41754.00    260347.00
    9895.634     42255.00    261257.00
    9898.049     42506.00    261074.00
    9900.464     42660.00    260908.00
    9902.882     42723.00    260991.00
    9905.300     42740.00    261023.00
    9907.761     42680.00    260945.00
    9910.225     42688.00    260842.00
    9912.688     42815.00    261030.00
    9915.239     42955.00    261080.00
    9917.750     43088.00    261008.00
    9920.260     43042.00    259917.00
    9922.771     43380.00    261676.00
    9925.286     43466.00    261657.00
    9927.842     43512.00    261491.00
    9930.400     43493.00    261273.00
    9932.961     43591.00    261358.00
    9935.564     43704.00    261431.00
    9938.214     43791.00    261310.00
    9940.776     43903.00    261342.00
    9943.429     43960.00    261340.00
    9946.038     44057.00    261223.00
    9948.691     44186.00    261128.00
    9951.391     44217.00    260941.00
    9954.047     44224.00    260888.00
    9956.747     44146.00    260908.00
    9959.278     44124.00    260702.00
    9961.983     44105.00    260580.00
    9964.860     44103.00    260575.00
    9967.653     44219.00    260443.00
    9970.405     44316.00    260466.00
    9973.157     44407.00    260457.00
    9975.912     44478.00    260339.00
    9978.755     44656.00    260488.00
    9981.513     44784.00    260321.00
    9984.272     44473.00    257131.00
    9987.120     45616.00    262999.00
    9989.926     45646.00    262330.00
    9992.776     45776.00    262082.00
    9995.628     45917.00    261684.00
    9998.524     46150.00    261506.00
   10001.420     46375.00    261021.00
   10004.330     46529.00    260698.00
   10007.230     46994.00    261948.00
   10010.170     47131.00    261636.00
   10013.080     47238.00    261404.00
   10015.990     47364.00    261300.00
   10018.980     47523.00    261139.00
   10021.980     47653.00    261073.00
   10024.900     47767.00    260876.00
   10027.940     47854.00    260772.00
   10030.940     47969.00    260710.00
   10033.900     48066.00    260707.00
   10036.960     48146.00    260593.00
   10039.830     48199.00    260606.00
   10043.110     48262.00    260573.00
   10046.120     48367.00    260635.00
   10049.180     48450.00    260719.00
   10052.280     48552.00    260671.00
   10055.390     48676.00    260676.00
   10058.500     48782.00    260747.00
   10061.600     48968.00    260820.00
   10064.800     49005.00    260780.00
   10067.960     49030.00    260536.00
   10071.120     49259.00    260615.00
   10074.280     49375.00    260572.00
   10077.450     49530.00    260766.00
   10080.660     49653.00    260699.00
   10083.870     49717.00    260744.00
   10087.080     49840.00    260719.00
   10090.300     50008.00    260712.00
   10093.600     50139.00    260728.00
   10096.820     50317.00    260765.00
   10100.090     50464.00    260705.00
   10103.360     50621.00    260669.00
   10106.720     50733.00    260447.00
   10110.040     50954.00    260776.00
   10113.350     51159.00    260874.00
   10116.680     51309.00    260816.00
   10120.040     51441.00    260704.00
   10123.370     51707.00    261012.00
   10126.740     51892.00    260984.00
   10130.160     52010.00    260940.00
   10133.500     52209.00    260997.00
   10136.920     52380.00    260853.00
   10140.350     52499.00    260891.00
   10143.730     52729.00    260826.00
   10147.250     52895.00    260777.00
   10150.640     53111.00    260776.00
   10154.120     53242.00    260763.00
   10157.650     53348.00    260616.00
   10161.130     53515.00    260680.00
   10164.620     53642.00    260610.00
   10168.160     53811.00    260752.00
   10171.650     53855.00    260540.00
   10175.240     54012.00    260564.00
   10178.730     54210.00    260627.00
   10182.370     54335.00    260488.00
   10185.870     54372.00    260133.00
   10189.510     54579.00    260743.00
   10193.060     54629.00    260624.00
   10196.710     54873.00    260527.00
   10200.310     54864.00    259648.00
   10203.960     55247.00    260704.00
   10207.620     55550.00    261681.00
