#XDI/1.1  GSE/2.0
# Column.1: energy eV
# Column.2: itrans
# Column.3: i0
# Element.symbol:  Au
# Element.edge:  L3
# Mono.d_spacing:  3.13477
# Mono.name: Si 111
# Sample.formula: Au
# Sample.name: Au
# Sample.prep: metal foil
# Sample.temperature: room temperature
# Facility.Name:  APS
# Beamline.Name:  13-ID-E
# Beamline.xray_source:  3.6cm undulator
# Beamline.Storage_Ring_Current: 102.0
# Beamline.I0: He, 200 cm
# Beamline.I1: N2,  10 cm
# Scan.start_time: 2016-07-05 18:10:52
# Scan.end_time: 2016-07-05 18:19:10
# ScanParameters.Start: Scan.Member: Value
# ScanParameters.ScanType: xafs
# ScanParameters.E0: 11919.000
# ScanParameters.Legend:  Start, Stop, Step, K-space, Time
# ScanParameters.Region1:   -100.000,   -20.000,     5.000  False  0.50
# ScanParameters.Region2:    -20.000,    30.000,     0.200  False  0.50
# ScanParameters.Region3:      2.806,    13.000,     0.050  True  0.50
# ScanParameters.End: here
#-------------------------
#  energy  itrans  i0
   11819.000    169674.30     94782.30 
   11824.000    165099.30     92106.30 
   11829.000    160731.30     89579.30 
   11834.000    154949.30     86271.30 
   11839.000    152698.30     84958.30 
   11844.000    156991.30     87282.30 
   11849.000    153945.30     85564.30 
   11854.000    161957.30     89961.30 
   11859.000    167482.30     93025.30 
   11864.000    172898.30     96068.30 
   11869.000    172997.30     96160.30 
   11874.000    173408.30     96434.30 
   11879.000    173074.30     96306.30 
   11884.000    172796.30     96317.30 
   11889.000    172586.30     96482.30 
   11894.000    166926.30     93772.30 
   11899.000    170340.30     96470.30 
   11899.200    170402.30     96541.30 
   11899.400    170116.30     96439.30 
   11899.600    170266.30     96550.30 
   11899.800    170021.30     96447.30 
   11900.000    170150.30     96593.30 
   11900.200    170285.30     96703.30 
   11900.400    170024.30     96624.30 
   11900.600    169955.30     96614.30 
   11900.800    169792.30     96537.30 
   11901.000    169759.30     96610.30 
   11901.200    169584.30     96535.30 
   11901.400    169568.30     96580.30 
   11901.600    169386.30     96538.30 
   11901.800    169421.30     96657.30 
   11902.000    169190.30     96528.30 
   11902.200    169046.30     96552.30 
   11902.400    168964.30     96518.30 
   11902.600    168874.30     96555.30 
   11902.800    168592.30     96475.30 
   11903.000    168762.30     96655.30 
   11903.200    168748.30     96699.30 
   11903.400    168628.30     96703.30 
   11903.600    168303.30     96586.30 
   11903.800    168109.30     96564.30 
   11904.000    168129.30     96638.30 
   11904.200    167744.30     96474.30 
   11904.400    167733.30     96629.30 
   11904.600    167797.30     96697.30 
   11904.800    167529.30     96640.30 
   11905.000    167416.30     96656.30 
   11905.200    167545.30     96820.30 
   11905.400    167464.30     96871.30 
   11905.600    166824.30     96627.30 
   11905.800    166693.30     96643.30 
   11906.000    166398.30     96570.30 
   11906.200    166236.30     96589.30 
   11906.400    165792.30     96445.30 
   11906.600    165681.30     96471.30 
   11906.800    165163.30     96269.30 
   11907.000    164981.30     96299.30 
   11907.200    163147.30     95379.30 
   11907.400    162862.30     95359.30 
   11907.600    162810.30     95429.30 
   11907.800    162939.30     95649.30 
   11908.000    162556.30     95578.30 
   11908.200    162639.30     95799.30 
   11908.400    162302.30     95778.30 
   11908.600    162212.30     95844.30 
   11908.800    162638.30     96295.30 
   11909.000    162979.30     96675.30 
   11909.200    162871.30     96805.30 
   11909.400    162551.30     96754.30 
   11909.600    162224.30     96850.30 
   11909.800    157478.30     94166.30 
   11910.000    162144.30     97186.30 
   11910.200    161880.30     97281.30 
   11910.400    161332.30     97147.30 
   11910.600    160944.30     97186.30 
   11910.800    160306.30     97042.30 
   11911.000    160007.30     97139.30 
   11911.200    159636.30     97269.30 
   11911.400    158791.30     97018.30 
   11911.600    158460.30     97147.30 
   11911.800    157685.30     96954.30 
   11912.000    157242.30     97057.30 
   11912.200    156432.30     96928.30 
   11912.400    155800.30     96958.30 
   11912.600    155128.30     96959.30 
   11912.800    154110.30     96720.30 
   11913.000    152676.30     96281.30 
   11913.200    151147.30     95793.30 
   11913.400    150242.30     95733.30 
   11913.600    149699.30     95929.30 
   11913.800    148801.30     95956.30 
   11914.000    148015.30     96064.30 
   11914.200    147003.30     96027.30 
   11914.400    145801.30     95921.30 
   11914.600    145059.30     96180.30 
   11914.800    144045.30     96370.30 
   11915.000    143797.30     97006.30 
   11915.200    142660.30     97129.30 
   11915.400    141357.30     97153.30 
   11915.600    139822.30     97183.30 
   11915.800    138356.30     97294.30 
   11916.000    136731.30     97382.30 
   11916.200    135012.30     97455.30 
   11916.400    132992.30     97384.30 
   11916.600    130913.30     97452.30 
   11916.800    128737.30     97444.30 
   11917.000    126461.30     97496.30 
   11917.200    123965.30     97454.30 
   11917.400    121561.30     97713.30 
   11917.600    118473.30     97359.30 
   11917.800    115856.30     97600.30 
   11918.000    112879.30     97524.30 
   11918.200    109949.30     97634.30 
   11918.400    106810.30     97730.30 
   11918.600    103701.30     97747.30 
   11918.800    100708.30     97842.30 
   11919.000     97694.30     97975.30 
   11919.200     94594.30     97971.30 
   11919.400     91419.30     97897.30 
   11919.600     88708.30     98085.30 
   11919.800     85874.30     97957.30 
   11920.000     83379.30     98047.30 
   11920.200     81004.30     97984.30 
   11920.400     78626.30     97863.30 
   11920.600     74354.30     94889.30 
   11920.800     75334.30     98465.30 
   11921.000     73775.30     98507.30 
   11921.200     72325.30     98515.30 
   11921.400     70870.30     98366.30 
   11921.600     69785.30     98466.30 
   11921.800     68769.30     98439.30 
   11922.000     67904.30     98476.30 
   11922.200     67085.30     98424.30 
   11922.400     66246.30     98190.30 
   11922.600     65819.30     98482.30 
   11922.800     65261.30     98348.30 
   11923.000     64816.30     98296.30 
   11923.200     64489.30     98346.30 
   11923.400     64111.30     98156.30 
   11923.600     63971.30     98220.30 
   11923.800     63858.30     98344.30 
   11924.000     63795.30     98395.30 
   11924.200     63525.30     98072.30 
   11924.400     63593.30     98221.30 
   11924.600     63447.30     98007.30 
   11924.800     63333.30     97806.30 
   11925.000     63083.30     97451.30 
   11925.200     62906.30     97084.30 
   11925.400     62910.30     97040.30 
   11925.600     63015.30     97179.30 
   11925.800     63029.30     97199.30 
   11926.000     62979.30     97123.30 
   11926.200     63088.30     97329.30 
   11926.400     63013.30     97254.30 
   11926.600     62996.30     97302.30 
   11926.800     63133.30     97638.30 
   11927.000     63180.30     97846.30 
   11927.200     63315.30     98273.30 
   11927.400     63300.30     98522.30 
   11927.600     63103.30     98449.30 
   11927.800     62955.30     98553.30 
   11928.000     62808.30     98700.30 
   11928.200     62573.30     98669.30 
   11928.400     62308.30     98675.30 
   11928.600     62214.30     98935.30 
   11928.800     61857.30     98855.30 
   11929.000     61588.30     98906.30 
   11929.200     61158.30     98759.30 
   11929.400     60867.30     98768.30 
   11929.600     60670.30     98981.30 
   11929.800     60297.30     98887.30 
   11930.000     59957.30     98830.30 
   11930.200     59685.30     98930.30 
   11930.400     59421.30     99080.30 
   11930.600     59088.30     99011.30 
   11930.800     58692.30     98804.30 
   11931.000     58490.30     98953.30 
   11931.200     58259.30     99067.30 
   11931.400     58273.30     99539.30 
   11931.600     57909.30     99331.30 
   11931.800     57673.30     99352.30 
   11932.000     57425.30     99272.30 
   11932.200     57223.30     99251.30 
   11932.400     57090.30     99336.30 
   11932.600     56942.30     99394.30 
   11932.800     56756.30     99282.30 
   11933.000     56588.30     99240.30 
   11933.200     56471.30     99244.30 
   11933.400     56372.30     99265.30 
   11933.600     56269.30     99252.30 
   11933.800     56135.30     99178.30 
   11934.000     56127.30     99261.30 
   11934.200     55979.30     99167.30 
   11934.400     55945.30     99192.30 
   11934.600     55874.30     99167.30 
   11934.800     55859.30     99199.30 
   11935.000     55877.30     99346.30 
   11935.200     55844.30     99344.30 
   11935.400     55804.30     99356.30 
   11935.600     55714.30     99248.30 
   11935.800     55606.30     99151.30 
   11936.000     55598.30     99229.30 
   11936.200     55538.30     99263.30 
   11936.400     55505.30     99354.30 
   11936.600     55399.30     99289.30 
   11936.800     55353.30     99396.30 
   11937.000     55233.30     99345.30 
   11937.200     55077.30     99275.30 
   11937.400     54929.30     99193.30 
   11937.600     54744.30     99086.30 
   11937.800     54724.30     99248.30 
   11938.000     54642.30     99338.30 
   11938.200     54420.30     99137.30 
   11938.400     54403.30     99316.30 
   11938.600     54271.30     99262.30 
   11938.800     54167.30     99250.30 
   11939.000     54100.30     99265.30 
   11939.200     53939.30     99165.30 
   11939.400     53973.30     99427.30 
   11939.600     53789.30     99234.30 
   11939.800     53643.30     99091.30 
   11940.000     53605.30     99218.30 
   11940.200     53470.30     99186.30 
   11940.400     53433.30     99399.30 
   11940.600     53320.30     99451.30 
   11940.800     53246.30     99692.30 
   11941.000     52930.30     99434.30 
   11941.200     52710.30     99450.30 
   11941.400     52366.30     99276.30 
   11941.600     52152.30     99433.30 
   11941.800     51712.30     99161.30 
   11942.000     51426.30     99255.30 
   11942.200     51017.30     99248.30 
   11942.400     50598.30     99169.30 
   11942.600     50194.30     99220.30 
   11942.800     49700.30     99108.30 
   11943.000     49407.30     99426.30 
   11943.200     48913.30     99407.30 
   11943.400     48407.30     99260.30 
   11943.600     47958.30     99305.30 
   11943.800     47550.30     99388.30 
   11944.000     47062.30     99394.30 
   11944.200     46568.30     99203.30 
   11944.400     46294.30     99469.30 
   11944.600     45965.30     99584.30 
   11944.800     45553.30     99431.30 
   11945.000     45256.30     99455.30 
   11945.200     45053.30     99625.30 
   11945.400     44780.30     99529.30 
   11945.600     44509.30     99377.30 
   11945.800     44425.30     99535.30 
   11946.000     44397.30     99737.30 
   11946.200     44187.30     99414.30 
   11946.400     44261.30     99615.30 
   11946.600     44224.30     99485.30 
   11946.800     44240.30     99414.30 
   11947.000     44334.30     99390.30 
   11947.200     44490.30     99470.30 
   11947.400     44756.30     99662.30 
   11947.600     44884.30     99506.30 
   11947.800     45092.30     99544.30 
   11948.000     45388.30     99636.30 
   11948.200     45646.30     99661.30 
   11948.400     45906.30     99648.30 
   11948.600     46175.30     99652.30 
   11948.800     46522.30     99788.30 
   11949.000     46771.30     99710.30 
   11950.082     48220.30     99644.30 
   11951.184     49325.30     99650.30 
   11952.306     49902.30     99766.30 
   11953.447     50100.30     99792.30 
   11954.607     50323.30     99844.30 
   11955.787     50698.30     99867.30 
   11956.985     51076.30     99742.30 
   11958.203     51242.30     99754.30 
   11959.440     51046.30     99867.30 
   11960.696     50404.30     99897.30 
   11961.972     49534.30    100058.30 
   11963.266     48428.30     99989.30 
   11964.580     47398.30    100132.30 
   11965.914     46394.30    100207.30 
   11967.266     45614.30    100300.30 
   11968.637     45081.30    100187.30 
   11970.028     45047.30    100195.30 
   11971.438     45493.30    100273.30 
   11972.867     46026.30    100089.30 
   11974.316     46626.30    100107.30 
   11975.783     47167.30    100096.30 
   11977.270     46348.30     97436.30 
   11978.776     48185.30    100369.30 
   11980.302     48480.30    100293.30 
   11981.846     48739.30    100284.30 
   11983.410     49001.30    100278.30 
   11984.993     49402.30    100299.30 
   11986.595     49830.30    100121.30 
   11988.216     50265.30     99914.30 
   11989.857     50654.30     99771.30 
   11991.517     50805.30     99686.30 
   11993.196     50845.30     99819.30 
   11994.894     50618.30     99601.30 
   11996.611     50298.30     99406.30 
   11998.348     49990.30     99535.30 
   12000.104     49513.30     99602.30 
   12001.879     48927.30     99625.30 
   12003.673     48264.30     99431.30 
   12005.487     47701.30     99171.30 
   12007.319     47392.30     99072.30 
   12009.171     47446.30     99236.30 
   12011.042     47505.30     99046.30 
   12012.933     47593.30     98683.30 
   12014.842     47767.30     98499.30 
   12016.771     47798.30     98082.30 
   12018.719     47955.30     97923.30 
   12020.686     48009.30     97771.30 
   12022.673     47879.30     97337.30 
   12024.679     47925.30     97421.30 
   12026.703     47864.30     97334.30 
   12028.748     47773.30     97122.30 
   12030.811     47801.30     97121.30 
   12032.893     47716.30     96686.30 
   12034.995     47552.30     95982.30 
   12037.116     47800.30     95926.30 
   12039.256     48258.30     96345.30 
   12041.416     48719.30     96665.30 
   12043.594     49172.30     97062.30 
   12045.792     49123.30     96571.30 
   12048.009     47887.30     93892.30 
   12050.245     48769.30     95631.30 
   12052.501     48891.30     96112.30 
   12054.775     48941.30     96537.30 
   12057.069     48285.30     95647.30 
   12059.382     48680.30     96850.30 
   12061.715     48157.30     96122.30 
   12064.066     48664.30     97447.30 
   12066.437     49290.30     98976.30 
   12068.827     49339.30     99271.30 
   12071.236     49291.30     99333.30 
   12073.665     49145.30     99066.30 
   12076.112     49297.30     99425.30 
   12078.579     49334.30     99440.30 
   12081.065     49431.30     99482.30 
   12083.570     49386.30     99393.30 
   12086.095     49133.30     98933.30 
   12088.639     49264.30     99318.30 
   12091.201     49104.30     99099.30 
   12093.784     49144.30     99153.30 
   12096.385     49369.30     99386.30 
   12099.006     49562.30     99306.30 
   12101.645     49838.30     99184.30 
   12104.304     50041.30     98881.30 
   12106.982     50209.30     98610.30 
   12109.680     50407.30     98663.30 
   12112.397     49096.30     95888.30 
   12115.132     50754.30     98930.30 
   12117.887     50936.30     99204.30 
   12120.662     50979.30     99250.30 
   12123.455     50810.30     98957.30 
   12126.268     50588.30     98588.30 
   12129.100     50720.30     99070.30 
   12131.951     50443.30     98829.30 
   12134.821     50197.30     98771.30 
   12137.711     49926.30     98649.30 
   12140.620     49605.30     98472.30 
   12143.548     49451.30     98613.30 
   12146.495     49578.30     99192.30 
   12149.461     49553.30     99320.30 
   12152.447     49608.30     99312.30 
   12155.452     49822.30     99456.30 
   12158.476     50111.30     99564.30 
   12161.519     50156.30     99091.30 
   12164.582     50528.30     99177.30 
   12167.664     50845.30     99121.30 
   12170.764     51182.30     99132.30 
   12173.885     51488.30     99227.30 
   12177.024     51465.30     98970.30 
   12180.183     51085.30     98169.30 
   12183.360     51176.30     98424.30 
   12186.557     51354.30     98885.30 
   12189.774     51266.30     98694.30 
   12193.009     51220.30     98513.30 
   12196.264     51063.30     97998.30 
   12199.538     51097.30     97980.30 
   12202.831     50885.30     97605.30 
   12206.143     50401.30     96817.30 
   12209.475     50063.30     96401.30 
   12212.825     50148.30     96836.30 
   12216.195     49852.30     96484.30 
   12219.584     49329.30     95668.30 
   12222.993     49239.30     95584.30 
   12226.420     48648.30     94364.30 
   12229.867     48744.30     94337.30 
   12233.333     48387.30     93244.30 
   12236.819     48116.30     92242.30 
   12240.323     48084.30     91656.30 
   12243.847     47715.30     90478.30 
   12247.390     47072.30     88952.30 
   12250.952     48059.30     90624.30 
   12254.533     47980.30     90397.30 
   12258.134     48351.30     90999.30 
   12261.753     47740.30     89784.30 
   12265.392     47689.30     89635.30 
   12269.050     47865.30     89871.30 
   12272.728     47592.30     89265.30 
   12276.425     50728.30     95035.30 
   12280.140     50896.30     95233.30 
   12283.875     49660.30     92870.30 
   12287.630     50938.30     95321.30 
   12291.403     50704.30     95002.30 
   12295.196     50172.30     94022.30 
   12299.008     50490.30     94634.30 
   12302.839     50307.30     94336.30 
   12306.689     50166.30     93987.30 
   12310.559     50767.30     95003.30 
   12314.448     50461.30     94360.30 
   12318.356     50958.30     95121.30 
   12322.283     51083.30     95079.30 
   12326.229     51563.30     95631.30 
   12330.195     51747.30     95562.30 
   12334.180     51889.30     95447.30 
   12338.184     52244.30     95784.30 
   12342.207     52255.30     95624.30 
   12346.250     52267.30     95488.30 
   12350.311     52239.30     95296.30 
   12354.392     51649.30     94208.30 
   12358.492     51853.30     94543.30 
   12362.612     52039.30     94861.30 
   12366.750     51901.30     94571.30 
   12370.908     51939.30     94648.30 
   12375.085     52867.30     96309.30 
   12379.281     52858.30     96217.30 
   12383.497     52962.30     96294.30 
   12387.731     52866.30     96064.30 
   12391.985     52654.30     95592.30 
   12396.258     52545.30     95277.30 
   12400.551     52544.30     95134.30 
   12404.862     52525.30     94899.30 
   12409.193     52055.30     93855.30 
   12413.543     52035.30     93577.30 
   12417.912     52018.30     93335.30 
   12422.300     51861.30     92828.30 
   12426.708     51718.30     92372.30 
   12431.135     51267.30     91320.30 
   12435.581     51078.30     90751.30 
   12440.046     50535.30     89573.30 
   12444.530     50433.30     89207.30 
   12449.034     50192.30     88638.30 
   12453.557     49410.30     87186.30 
   12458.099     49677.30     87506.30 
   12462.660     48777.30     85851.30 
   12467.241     49880.30     87733.30 
   12471.841     48902.30     85995.30 
   12476.460     48922.30     85886.30 
   12481.098     49436.30     86780.30 
   12485.755     49618.30     86999.30 
   12490.432     49935.30     87488.30 
   12495.128     50654.30     88635.30 
   12499.843     51225.30     89525.30 
   12504.577     52117.30     90950.30 
   12509.330     51386.30     89528.30 
   12514.103     52210.30     90729.30 
   12518.895     50587.30     87685.30 
   12523.706     49137.30     84945.30 
   12528.536     48781.30     84087.30 
   12533.386     50684.30     87214.30 
   12538.255     50932.30     87424.30 
   12543.143     52500.30     89933.30 
   12548.050     52300.30     89448.30 
   12552.976     53180.30     90762.30 
   12557.922     52657.30     89642.30 
   12562.887     52719.30     89570.30 
