#XDI/1.1  GSE/2.0
# Column.1: energy eV
# Column.2: itrans
# Column.3: i0
# Element.symbol:  Au
# Element.edge:  L2
# Mono.d_spacing:  3.13477
# Mono.name: Si 111
# Sample.formula: Au
# Sample.name: Au
# Sample.prep: metal foil
# Sample.temperature: room temperature
# Facility.Name:  APS
# Beamline.Name:  13-ID-E
# Beamline.xray_source:  3.6cm undulator
# Beamline.Storage_Ring_Current: 102.0
# Beamline.I0: He,  20 cm
# Beamline.I1: N2,  10 cm
# Scan.start_time: 2016-07-05 18:20:59
# Scan.end_time: 2016-07-05 18:28:07
# ScanParameters.Start: Scan.Member: Value
# ScanParameters.ScanType: xafs
# ScanParameters.E0: 13734.000
# ScanParameters.Legend:  Start, Stop, Step, K-space, Time
# ScanParameters.Region1:   -100.000,   -20.000,     5.000  False  0.50
# ScanParameters.Region2:    -20.000,    30.000,     0.200  False  0.50
# ScanParameters.Region3:      2.806,    13.000,     0.050  True  0.50
# ScanParameters.End: here
#-------------------------
#  energy  itrans  i0
   13634.000    163420.15     77858.45
   13639.000    169493.15     80574.45
   13644.000    172967.15     82114.45
   13649.000    174169.15     82580.45
   13654.000    175875.15     83217.45
   13659.000    178899.15     84543.45
   13664.000    176855.15     83442.45
   13669.000    176737.15     83275.45
   13674.000    171304.15     80627.45
   13679.000    177343.15     83330.45
   13684.000    178299.15     83673.45
   13689.000    180683.15     84691.45
   13694.000    182377.15     85415.45
   13699.000    181861.15     85096.45
   13704.000    181962.15     85080.45
   13709.000    182127.15     85187.45
   13714.000    180434.15     84555.45
   13714.200    175590.15     82273.45
   13714.400    172428.15     80783.45
   13714.600    170364.15     79825.45
   13714.800    169214.15     79322.45
   13715.000    168307.15     78913.45
   13715.200    168210.15     78882.45
   13715.400    167819.15     78700.45
   13715.600    167726.15     78672.45
   13715.800    167292.15     78445.45
   13716.000    167573.15     78640.45
   13716.200    168033.15     78817.45
   13716.400    167364.15     78550.45
   13716.600    166940.15     78342.45
   13716.800    167075.15     78423.45
   13717.000    167223.15     78528.45
   13717.200    167487.15     78640.45
   13717.400    167259.15     78564.45
   13717.600    167245.15     78548.45
   13717.800    167501.15     78698.45
   13718.000    167939.15     78911.45
   13718.200    166809.15     78391.45
   13718.400    166854.15     78436.45
   13718.600    165534.15     77846.45
   13718.800    165849.15     77987.45
   13719.000    165403.15     77794.45
   13719.200    165121.15     77686.45
   13719.400    165667.15     77971.45
   13719.600    165711.15     78016.45
   13719.800    165411.15     77878.45
   13720.000    165569.15     77951.45
   13720.200    165533.15     77958.45
   13720.400    165659.15     78059.45
   13720.600    165795.15     78138.45
   13720.800    165492.15     77997.45
   13721.000    165236.15     77917.45
   13721.200    165343.15     78009.45
   13721.400    165132.15     77939.45
   13721.600    165328.15     78064.45
   13721.800    165464.15     78163.45
   13722.000    165611.15     78268.45
   13722.200    165011.15     78006.45
   13722.400    164871.15     77966.45
   13722.600    164673.15     77896.45
   13722.800    164321.15     77742.45
   13723.000    164518.15     77908.45
   13723.200    164891.15     78116.45
   13723.400    164227.15     77846.45
   13723.600    163898.15     77715.45
   13723.800    163647.15     77652.45
   13724.000    163512.15     77638.45
   13724.200    163826.15     77834.45
   13724.400    163789.15     77856.45
   13724.600    163830.15     77911.45
   13724.800    164033.15     78060.45
   13725.000    164294.15     78293.45
   13725.200    163846.15     78100.45
   13725.400    162493.15     77544.45
   13725.600    162174.15     77450.45
   13725.800    162215.15     77529.45
   13726.000    162394.15     77690.45
   13726.200    158328.15     75794.45
   13726.400    163304.15     78268.45
   13726.600    163200.15     78300.45
   13726.800    162560.15     78078.45
   13727.000    162611.15     78213.45
   13727.200    162554.15     78247.45
   13727.400    162400.15     78337.45
   13727.600    162235.15     78369.45
   13727.800    161563.15     78157.45
   13728.000    161474.15     78235.45
   13728.200    161379.15     78310.45
   13728.400    161171.15     78354.45
   13728.600    161072.15     78462.45
   13728.800    159983.15     78103.45
   13729.000    159044.15     77842.45
   13729.200    158875.15     77911.45
   13729.400    158724.15     78041.45
   13729.600    157951.15     77871.45
   13729.800    157935.15     78100.45
   13730.000    157656.15     78228.45
   13730.200    157486.15     78434.45
   13730.400    157040.15     78473.45
   13730.600    155873.15     78219.45
   13730.800    154976.15     78095.45
   13731.000    154339.15     78122.45
   13731.200    153154.15     77931.45
   13731.400    152402.15     77925.45
   13731.600    151801.15     78092.45
   13731.800    150604.15     77942.45
   13732.000    148537.15     77385.45
   13732.200    147739.15     77530.45
   13732.400    146882.15     77670.45
   13732.600    145720.15     77652.45
   13732.800    144606.15     77677.45
   13733.000    143443.15     77775.45
   13733.200    142243.15     77808.45
   13733.400    141222.15     77961.45
   13733.600    139986.15     78048.45
   13733.800    139170.15     78327.45
   13734.000    137907.15     78315.45
   13734.200    136492.15     78283.45
   13734.400    135303.15     78360.45
   13734.600    133840.15     78236.45
   13734.800    132766.15     78371.45
   13735.000    131618.15     78334.45
   13735.200    130755.15     78479.45
   13735.400    129560.15     78408.45
   13735.600    128349.15     78249.45
   13735.800    127541.15     78320.45
   13736.000    126999.15     78528.45
   13736.200    126216.15     78514.45
   13736.400    125817.15     78708.45
   13736.600    125088.15     78703.45
   13736.800    123454.15     78090.45
   13737.000    122853.15     78080.45
   13737.200    122495.15     78247.45
   13737.400    122170.15     78379.45
   13737.600    121766.15     78433.45
   13737.800    121596.15     78645.45
   13738.000    120445.15     78188.45
   13738.200    120366.15     78416.45
   13738.400    119844.15     78348.45
   13738.600    119272.15     78186.45
   13738.800    119065.15     78305.45
   13739.000    118795.15     78374.45
   13739.200    118650.15     78552.45
   13739.400    118267.15     78516.45
   13739.600    118013.15     78627.45
   13739.800    117376.15     78453.45
   13740.000    117417.15     78763.45
   13740.200    116530.15     78461.45
   13740.400    116082.15     78449.45
   13740.600    115573.15     78408.45
   13740.800    114960.15     78311.45
   13741.000    114878.15     78595.45
   13741.200    114378.15     78606.45
   13741.400    113848.15     78595.45
   13741.600    113648.15     78849.45
   13741.800    113206.15     78934.45
   13742.000    112825.15     79071.45
   13742.200    111981.15     78866.45
   13742.400    110961.15     78580.45
   13742.600    110554.15     78648.45
   13742.800    109935.15     78612.45
   13743.000    109498.15     78702.45
   13743.200    109195.15     78898.45
   13743.400    109030.15     79170.45
   13743.600    108481.15     79139.45
   13743.800    108069.15     79227.45
   13744.000    107416.15     79087.45
   13744.200    106236.15     78565.45
   13744.400    105899.15     78621.45
   13744.600    105776.15     78815.45
   13744.800    105296.15     78722.45
   13745.000    105230.15     78946.45
   13745.200    104499.15     78603.45
   13745.400    103925.15     78409.45
   13745.600    103860.15     78547.45
   13745.800    103815.15     78689.45
   13746.000    103542.15     78647.45
   13746.200    103499.15     78714.45
   13746.400    103292.15     78697.45
   13746.600    103235.15     78733.45
   13746.800    103020.15     78661.45
   13747.000    103132.15     78822.45
   13747.200    103308.15     78987.45
   13747.400    103162.15     78912.45
   13747.600    103182.15     78945.45
   13747.800    103288.15     79069.45
   13748.000    103056.15     78885.45
   13748.200    102986.15     78848.45
   13748.400    103122.15     78913.45
   13748.600    103249.15     79051.45
   13748.800    103430.15     79159.45
   13749.000    103365.15     79117.45
   13749.200    102829.15     78722.45
   13749.400    102916.15     78778.45
   13749.600    103117.15     78931.45
   13749.800    102734.15     78696.45
   13750.000    102733.15     78709.45
   13750.200    102848.15     78808.45
   13750.400    102669.15     78770.45
   13750.600    102907.15     78957.45
   13750.800    102922.15     79054.45
   13751.000    102932.15     79171.45
   13751.200    102711.15     79057.45
   13751.400    102467.15     79021.45
   13751.600    102592.15     79235.45
   13751.800    102441.15     79239.45
   13752.000    102436.15     79298.45
   13752.200    101958.15     79093.45
   13752.400    101761.15     79074.45
   13752.600    101687.15     79130.45
   13752.800    101600.15     79207.45
   13753.000    101619.15     79320.45
   13753.200    101573.15     79388.45
   13753.400    101520.15     79520.45
   13753.600    101236.15     79406.45
   13753.800    101130.15     79418.45
   13754.000    100704.15     79215.45
   13754.200    100647.15     79296.45
   13754.400    100162.15     79031.45
   13754.600    100219.15     79247.45
   13754.800     99850.15     79105.45
   13755.000     99491.15     78987.45
   13755.200     99323.15     79034.45
   13755.400     98900.15     78882.45
   13755.600     98892.15     79068.45
   13755.800     98584.15     79076.45
   13756.000     98526.15     79306.45
   13756.200     98195.15     79288.45
   13756.400     97970.15     79395.45
   13756.600     97741.15     79527.45
   13756.800     97462.15     79620.45
   13757.000     96887.15     79517.45
   13757.200     96268.15     79349.45
   13757.400     95939.15     79437.45
   13757.600     95581.15     79488.45
   13757.800     95361.15     79674.45
   13758.000     95022.15     79716.45
   13758.200     94755.15     79838.45
   13758.400     94656.15     80067.45
   13758.600     94239.15     80043.45
   13758.800     93388.15     79617.45
   13759.000     93008.15     79519.45
   13759.200     92842.15     79607.45
   13759.400     92667.15     79656.45
   13759.600     92485.15     79692.45
   13759.800     92005.15     79411.45
   13760.000     91684.15     79218.45
   13760.200     91586.15     79182.45
   13760.400     91778.15     79413.45
   13760.600     91536.15     79197.45
   13760.800     91540.15     79169.45
   13761.000     91826.15     79333.45
   13761.200     91941.15     79371.45
   13761.400     92138.15     79436.45
   13761.600     91953.15     79159.45
   13761.800     92202.15     79212.45
   13762.000     92514.15     79327.45
   13762.200     92844.15     79414.45
   13762.400     93130.15     79449.45
   13762.600     93445.15     79554.45
   13762.800     93827.15     79685.45
   13763.000     93941.15     79498.45
   13763.200     94268.15     79615.45
   13763.400     94610.15     79694.45
   13763.600     94946.15     79801.45
   13763.800     95288.15     79863.45
   13764.000     95559.15     79891.45
   13765.082     96164.15     79654.45
   13766.184     96600.15     79655.45
   13767.306     96633.15     79646.45
   13768.447     96723.15     79727.45
   13769.607     96967.15     79747.45
   13770.787     97307.15     79731.45
   13771.985     97581.15     79673.45
   13773.203     97907.15     79961.45
   13774.440     97006.15     79708.45
   13775.696     95880.15     79483.45
   13776.972     94894.15     79554.45
   13778.266     93858.15     79574.45
   13779.580     92869.15     79632.45
   13780.914     91902.15     79578.45
   13782.266     91598.15     79835.45
   13783.637     91316.15     79776.45
   13785.028     91452.15     79695.45
   13786.438     91619.15     79377.45
   13787.867     92125.15     79253.45
   13789.316     92769.15     79298.45
   13790.783     91188.15     77478.45
   13792.270     94092.15     79536.45
   13793.776     94900.15     79861.45
   13795.302     95431.15     80012.45
   13796.846     95152.15     79542.45
   13798.410     95317.15     79376.45
   13799.993     95607.15     79216.45
   13801.595     95392.15     78542.45
   13803.216     95558.15     78281.45
   13804.857     96128.15     78457.45
   13806.517     95142.15     77623.45
   13808.196     95257.15     77815.45
   13809.894     94473.15     77389.45
   13811.611     94280.15     77521.45
   13813.348     93657.15     77379.45
   13815.104     93331.15     77586.45
   13816.879     92581.15     77433.45
   13818.673     91642.15     77032.45
   13820.487     91295.15     76997.45
   13822.319     91605.15     77279.45
   13824.171     91673.15     77251.45
   13826.042     91999.15     77324.45
   13827.933     92657.15     77668.45
   13829.842     93198.15     77902.45
   13831.771     93659.15     78120.45
   13833.719     94834.15     78946.45
   13835.686     95484.15     79368.45
   13837.673     94613.15     78549.45
   13839.679     94473.15     78357.45
   13841.703     94684.15     78490.45
   13843.748     95078.15     78723.45
   13845.811     94720.15     78311.45
   13847.893     94875.15     78276.45
   13849.995     95920.15     78970.45
   13852.116     96703.15     79318.45
   13854.256     97696.15     79912.45
   13856.416     98412.15     80237.45
   13858.594     98418.15     80070.45
   13860.792     98587.15     80102.45
   13863.009     98522.15     80052.45
   13865.245     98703.15     80262.45
   13867.501     99103.15     80706.45
   13869.775     99275.15     80947.45
   13872.069     99747.15     81470.45
   13874.382     99712.15     81561.45
   13876.715     99887.15     81807.45
   13879.066     99795.15     81857.45
   13881.437    100468.15     82460.45
   13883.827    100699.15     82704.45
   13886.236    100530.15     82565.45
   13888.665    100970.15     82911.45
   13891.112    101248.15     83159.45
   13893.579    101831.15     83584.45
   13896.065    102436.15     84015.45
   13898.570    101877.15     83525.45
   13901.095    102200.15     83749.45
   13903.639    102326.15     83928.45
   13906.201    102435.15     83974.45
   13908.784    102640.15     84072.45
   13911.385    103141.15     84311.45
   13914.006    103213.15     84100.45
   13916.645    103447.15     83987.45
   13919.304    103591.15     83772.45
   13921.982    104466.15     84283.45
   13924.680    104394.15     84091.45
   13927.397    101321.15     81552.45
   13930.132    105280.15     84650.45
   13932.887    103133.15     82902.45
   13935.662    102004.15     81946.45
   13938.455    101374.15     81506.45
   13941.268    100853.15     81111.45
   13944.100    100562.15     80957.45
   13946.951    101494.15     81869.45
   13949.821    100980.15     81631.45
   13952.711     99463.15     80553.45
   13955.620     97622.15     79196.45
   13958.548     97545.15     79262.45
   13961.495     98122.15     79817.45
   13964.461     98361.15     79972.45
   13967.447     98100.15     79645.45
   13970.452     98425.15     79744.45
   13973.476     98070.15     79251.45
   13976.519     99021.15     79780.45
   13979.582    100181.15     80405.45
   13982.664    100850.15     80639.45
   13985.764    101015.15     80495.45
   13988.885     99756.15     79319.45
   13992.024     99448.15     79015.45
   13995.183     99726.15     79196.45
   13998.360    100302.15     79652.45
   14001.557     99347.15     78941.45
   14004.774     98825.15     78487.45
   14008.009     98850.15     78456.45
   14011.264     99554.15     78926.45
   14014.538     99318.15     78703.45
   14017.831     99409.15     78764.45
   14021.143     98994.15     78498.45
   14024.475     98207.15     77978.45
   14027.825     95820.15     76133.45
   14031.195     93884.15     74691.45
   14034.584     95600.15     76038.45
   14037.993     98518.15     78383.45
   14041.420     98308.15     78083.45
   14044.867     98220.15     77883.45
   14048.333     98403.15     77801.45
   14051.819     98662.15     77799.45
   14055.323     99251.15     78003.45
   14058.847     98943.15     77587.45
   14062.390     99953.15     78220.45
   14065.952    101400.15     79244.45
   14069.533    100244.15     78289.45
   14073.134     99687.15     77839.45
   14076.753    100210.15     78150.45
   14080.392    100703.15     78535.45
   14084.050    101296.15     78918.45
   14087.728    102019.15     79425.45
   14091.425    102108.15     79341.45
   14095.140    102633.15     79728.45
   14098.875    102650.15     79710.45
   14102.630    102687.15     79712.45
   14106.403    103725.15     80541.45
   14110.196    105618.15     81993.45
   14114.008    106242.15     82435.45
   14117.839    105990.15     82195.45
   14121.689     93793.15     72712.45
   14125.559    101937.15     78952.45
   14129.448    106114.15     82115.45
   14133.356    106573.15     82315.45
   14137.283    104790.15     80768.45
   14141.229    107135.15     82435.45
   14145.195    105155.15     80731.45
   14149.180    105714.15     80983.45
   14153.184    106903.15     81757.45
   14157.207    106672.15     81439.45
   14161.250    104309.15     79619.45
   14165.311    103537.15     78957.45
   14169.392    103922.15     79221.45
   14173.492    105900.15     80698.45
   14177.612    105197.15     80129.45
   14181.750    104052.15     79197.45
   14185.908    104108.15     79222.45
   14190.085    103470.15     78681.45
   14194.281    103615.15     78742.45
   14198.497    103877.15     78901.45
   14202.731    104578.15     79376.45
   14206.985    104579.15     79308.45
   14211.258     95766.15     72528.45
   14215.551    105242.15     79608.45
   14219.862    107449.15     81189.45
   14224.193    103742.15     78330.45
   14228.543    103956.15     78340.45
   14232.912    103372.15     77795.45
   14237.300    103500.15     77794.45
   14241.708    101234.15     76003.45
   14246.135    101611.15     76145.45
   14250.581    101059.15     75641.45
   14255.046    102537.15     76655.45
   14259.530    103468.15     77294.45
   14264.034    103471.15     77225.45
   14268.557    104061.15     77622.45
   14273.099    103976.15     77513.45
   14277.660    101481.15     75649.45
   14282.241    102253.15     76175.45
   14286.841    102256.15     76201.45
   14291.460    102126.15     76081.45
   14296.098    102838.15     76575.45
   14300.755    103268.15     76885.45
   14305.432    104182.15     77573.45
   14310.128    105028.15     78207.45
   14314.843    105441.15     78539.45
   14319.577    105675.15     78708.45
   14324.330    106432.15     79331.45
   14329.103    107338.15     80118.45
   14333.895    107146.15     80207.45
   14338.706    106268.15     79939.45
   14343.536    106371.15     80798.45
   14348.386    104079.15     81019.45
   14353.255     99800.15     82046.45
   14358.143     92767.15     82558.45
   14363.050     85608.15     82386.45
   14367.976     82797.15     81726.45
   14372.922     83476.15     81003.45
   14377.887     84211.15     80189.45
