# XDI/1.0 GSE/1.0
# Column.1: energy eV
# Column.2: mutrans
# Column.3: i0
# Element.edge: K
# Element.symbol: Fe
# Scan.edge_energy: 7112.
# Mono.name: Si 111
# Mono.d_spacing: 3.13550
# Beamline.name: 13-BM-D
# Beamline.collimation: none
# Beamline.focusing: no
# Beamline.harmonic_rejection: detuned 50%
# Facility.name: APS
# Facility.energy: 7.00 GeV
# Facility.xray_source: APS bending magnet
# Scan.start_time: 2002-03-16T19:49:43
# Detector.I0: 15cm  N2
# Detector.I1: 15cm  N2
# Sample.name: Fe metal foil
# Sample.prep: standard foil (Joe Wong boxed set)
# ///
# room temperature
# measured at beamline 13-BM-D
# vert slits = 2mm (at 45m)
#----
#   energy       mutrans            i0
  6962.0000       0.10632858        303156.00
  6972.0000       0.96232605E-01    305705.00
  6982.0000       0.86022042E-01    305821.00
  6992.0000       0.75641065E-01    306373.00
  7002.0000       0.65761946E-01    305919.00
  7012.0000       0.55578092E-01    305809.00
  7022.0000       0.45934329E-01    305925.00
  7032.0000       0.35642420E-01    305603.00
  7042.0000       0.26956716E-01    306302.00
  7052.0000       0.17457211E-01    305714.00
  7062.0000       0.84481634E-02    305804.00
  7072.0000       0.18503462E-03    305917.00
  7082.0000      -0.69864450E-02    305581.00
  7092.0000      -0.11101897E-01    305847.00
  7092.5000      -0.10879739E-01    305088.00
  7093.0000      -0.10796611E-01    305331.00
  7093.5000      -0.10827579E-01    305096.00
  7094.0000      -0.11206342E-01    305199.00
  7094.5000      -0.11330711E-01    305165.00
  7095.0000      -0.10840469E-01    305190.00
  7095.5000      -0.11225389E-01    304944.00
  7096.0000      -0.10828921E-01    305058.00
  7096.5000      -0.11323936E-01    305173.00
  7097.0000      -0.10848107E-01    305249.00
  7097.5000      -0.10859124E-01    305304.00
  7098.0000      -0.10553902E-01    305039.00
  7098.5000      -0.93856790E-02    305137.00
  7099.0000      -0.89500726E-02    305153.00
  7099.5000      -0.87305620E-02    305105.00
  7100.0000      -0.79597907E-02    304997.00
  7100.5000      -0.73034205E-02    304823.00
  7101.0000      -0.67788185E-02    304976.00
  7101.5000      -0.59728394E-02    304705.00
  7102.0000      -0.49932394E-02    304731.00
  7102.5000      -0.42958278E-02    304850.00
  7103.0000      -0.27062959E-02    304580.00
  7103.5000      -0.18211949E-02    304687.00
  7104.0000       0.90480155E-03    304735.00
  7104.5000       0.27309178E-02    304929.00
  7105.0000       0.55190487E-02    304805.00
  7105.5000       0.86962746E-02    304623.00
  7106.0000       0.11379356E-01    304520.00
  7106.5000       0.16060236E-01    304520.00
  7107.0000       0.21519199E-01    304829.00
  7107.5000       0.28320929E-01    304602.00
  7108.0000       0.37631196E-01    304414.00
  7108.5000       0.50689723E-01    304586.00
  7109.0000       0.70436808E-01    304596.00
  7109.5000       0.10456809        304428.00
  7110.0000       0.16929563        304465.00
  7110.5000       0.27398642        304320.00
  7111.0000       0.42586081        304466.00
  7111.5000       0.57356791        304401.00
  7112.0000       0.68143922        304226.00
  7112.5000       0.76914045        304454.00
  7113.0000       0.84213054        304322.00
  7113.5000       0.90495754        304273.00
  7114.0000       0.95866932        304279.00
  7114.5000       0.99911107        304428.00
  7115.0000        1.0195081        304265.00
  7115.5000        1.0340828        304007.00
  7116.0000        1.0508770        304056.00
  7116.5000        1.0801007        303372.00
  7117.0000        1.1384517        304018.00
  7117.5000        1.2273295        304658.00
  7118.0000        1.3268306        304430.00
  7118.5000        1.4417290        304164.00
  7119.0000        1.5495441        304064.00
  7119.5000        1.6679521        304090.00
  7120.0000        1.7911135        303928.00
  7120.5000        1.9057722        303894.00
  7121.0000        2.0106893        304074.00
  7121.5000        2.1072802        303948.00
  7122.0000        2.1846514        303860.00
  7122.5000        2.2528636        303835.00
  7123.0000        2.3154000        303853.00
  7123.5000        2.3686097        303762.00
  7124.0000        2.4160768        303798.00
  7124.5000        2.4616518        303766.00
  7125.0000        2.5038496        303773.00
  7125.5000        2.5488464        303708.00
  7126.0000        2.5963494        303660.00
  7126.5000        2.6461437        303682.00
  7127.0000        2.7038358        303554.00
  7127.5000        2.7661361        303609.00
  7128.0000        2.8364332        303668.00
  7128.5000        2.9070054        303636.00
  7129.0000        2.9749690        303618.00
  7129.5000        3.0310779        303384.00
  7130.0000        3.0725099        304448.00
  7130.5000        3.0891957        305003.00
  7131.0000        3.0747971        305275.00
  7131.5000        3.0346254        305585.00
  7132.0000        2.9839794        305358.00
  7132.8830        2.8777746        305376.00
  7133.7850        2.7826596        305338.00
  7134.7070        2.7121046        305472.00
  7135.6470        2.6745671        305257.00
  7136.6060        2.6675460        305426.00
  7137.5840        2.6888052        305382.00
  7138.5820        2.7273875        305145.00
  7139.5990        2.7649405        305358.00
  7140.6340        2.7892077        305164.00
  7141.6890        2.7896506        305169.00
  7142.7630        2.7753117        305076.00
  7143.8560        2.7623626        305237.00
  7144.9680        2.7703325        305205.00
  7146.0990        2.8039587        304944.00
  7147.2490        2.8589190        305114.00
  7148.4180        2.9148180        305169.00
  7149.6060        2.9518301        304923.00
  7150.8140        2.9737437        305144.00
  7152.0410        2.9907966        304979.00
  7153.2860        2.9962046        304932.00
  7154.5510        2.9871445        304819.00
  7155.8340        2.9721545        304972.00
  7157.1370        2.9586320        304865.00
  7158.4590        2.9521956        304843.00
  7159.8000        2.9510065        304825.00
  7161.1600        2.9430238        304773.00
  7162.5390        2.9290189        304744.00
  7163.9370        2.9094364        304797.00
  7165.3540        2.8952140        304689.00
  7166.7910        2.8848488        304644.00
  7168.2460        2.8733209        304656.00
  7169.7200        2.8570512        304475.00
  7171.2140        2.8315216        303453.00
  7172.7260        2.7959215        305975.00
  7174.2580        2.7510434        304714.00
  7175.8090        2.7029536        304525.00
  7177.3780        2.6596856        304521.00
  7178.9670        2.6307127        304502.00
  7180.5750        2.6237334        304535.00
  7182.2030        2.6303651        304646.00
  7183.8490        2.6490602        304371.00
  7185.5140        2.6809820        304433.00
  7187.1980        2.7242628        304193.00
  7188.9010        2.7690181        304278.00
  7190.6240        2.8209961        304323.00
  7192.3650        2.8672897        304284.00
  7194.1260        2.8825717        304219.00
  7195.9060        2.8647202        304240.00
  7197.7050        2.8219900        304239.00
  7199.5220        2.7653297        304222.00
  7201.3590        2.7018828        304214.00
  7203.2150        2.6325333        304125.00
  7205.0900        2.5725131        304144.00
  7206.9840        2.5443979        304092.00
  7208.8970        2.5683214        304124.00
  7210.8300        2.6554032        304102.00
  7212.7810        2.7923459        304018.00
  7214.7510        2.9462228        304893.00
  7216.7410        3.0764605        304981.00
  7218.7500        3.1571675        305913.00
  7220.7770        3.1746148        306131.00
  7222.8240        3.1231279        305807.00
  7224.8900        3.0226417        305869.00
  7226.9750        2.9005160        305836.00
  7229.0790        2.7735948        305882.00
  7231.2020        2.6520671        305784.00
  7233.3440        2.5517226        305994.00
  7235.5050        2.4841288        305587.00
  7237.6850        2.4542988        305742.00
  7239.8850        2.4565450        305683.00
  7242.1030        2.4845149        305729.00
  7244.3410        2.5264013        305623.00
  7246.5970        2.5639742        305649.00
  7248.8730        2.5825643        305589.00
  7251.1670        2.5750962        305561.00
  7253.4810        2.5496792        305523.00
  7255.8140        2.5296830        305586.00
  7258.1660        2.5334003        305603.00
  7260.5370        2.5568873        305412.00
  7262.9270        2.5803927        305441.00
  7265.3360        2.5975543        305114.00
  7267.7650        2.6202634        305857.00
  7270.2120        2.6584404        305755.00
  7272.6790        2.7051438        305432.00
  7275.1640        2.7323374        305276.00
  7277.6680        2.7473697        305266.00
  7280.1920        2.7691016        305276.00
  7282.7350        2.8000506        305284.00
  7285.2970        2.8307878        305045.00
  7287.8770        2.8441988        305090.00
  7290.4780        2.8149208        305067.00
  7293.0970        2.7462727        305243.00
  7295.7350        2.6606831        305297.00
  7298.3920        2.5812331        304905.00
  7301.0680        2.5175497        304901.00
  7303.7640        2.4694435        304287.00
  7306.4780        2.4395618        305868.00
  7309.2110        2.4254220        305090.00
  7311.9640        2.4243521        304888.00
  7314.7360        2.4243027        304952.00
  7317.5260        2.4198812        304911.00
  7320.3360        2.4146553        304843.00
  7323.1650        2.4118147        304826.00
  7326.0130        2.4084116        304802.00
  7328.8800        2.4033121        304800.00
  7331.7660        2.3884728        304680.00
  7334.6710        2.3675921        304723.00
  7337.5960        2.3541038        304715.00
  7340.5390        2.3587999        304753.00
  7343.5010        2.3883128        304762.00
  7346.4830        2.4322379        304672.00
  7349.4830        2.4775580        304622.00
  7352.5030        2.5189232        304600.00
  7355.5420        2.5531316        304614.00
  7358.6000        2.5843942        304399.00
  7361.6760        2.6089913        304548.00
  7364.7720        2.6190672        304517.00
  7367.8870        2.6096917        305278.00
  7371.0210        2.5763397        305218.00
  7374.1750        2.5179472        306461.00
  7377.3470        2.4331224        306571.00
  7380.5380        2.3450937        305999.00
  7383.7490        2.2793114        306243.00
  7386.9780        2.2501731        306264.00
  7390.2270        2.2518426        306367.00
  7393.4940        2.2649777        306209.00
  7396.7810        2.2763741        306241.00
  7400.0870        2.2774382        306294.00
  7403.4120        2.2727243        306125.00
  7406.7550        2.2718524        306314.00
  7410.1190        2.2723571        305935.00
  7413.5000        2.2721282        305186.00
  7416.9020        2.2691792        307005.00
  7420.3220        2.2576383        306207.00
  7423.7610        2.2399699        305616.00
  7427.2200        2.2243134        306130.00
  7430.6970        2.2211471        306084.00
  7434.1940        2.2239048        305894.00
  7437.7090        2.2342811        305825.00
  7441.2440        2.2553939        305883.00
  7444.7980        2.2800242        305777.00
  7448.3710        2.2979874        305755.00
  7451.9620        2.3055609        305923.00
  7455.5740        2.3036850        305640.00
  7459.2040        2.2978550        305615.00
  7462.8530        2.2840497        305695.00
  7466.5210        2.2613484        305781.00
  7470.2080        2.2333197        306035.00
  7473.9150        2.2037671        305376.00
  7477.6400        2.1820863        305741.00
  7481.3850        2.1632390        305487.00
  7485.1480        2.1392357        305588.00
  7488.9310        2.1142658        305532.00
  7492.7330        2.0945960        305502.00
  7496.5540        2.0879469        305551.00
  7500.3940        2.0881193        305410.00
  7504.2530        2.0923277        304510.00
  7508.1310        2.0920528        306079.00
  7512.0280        2.0881500        305492.00
  7515.9440        2.0795686        305298.00
  7519.8790        2.0735241        305343.00
  7523.8340        2.0696070        305290.00
  7527.8070        2.0688799        305266.00
  7531.8000        2.0674942        305199.00
  7535.8120        2.0648192        305314.00
  7539.8420        2.0575312        305171.00
  7543.8920        2.0492089        305242.00
  7547.9610        2.0431345        305245.00
  7552.0490        2.0419100        305041.00
  7556.1560        2.0463194        305112.00
  7560.2820        2.0526365        305114.00
  7564.4270        2.0527024        305064.00
  7568.5910        2.0464099        305039.00
  7572.7740        2.0324751        305077.00
  7576.9770        2.0113258        305000.00
  7581.1980        1.9908998        304874.00
  7585.4390        1.9729971        305096.00
  7589.6980        1.9607671        305089.00
  7593.9770        1.9535951        305688.00
  7598.2750        1.9502419        306823.00
  7602.5920        1.9444359        306913.00
  7606.9280        1.9350445        306620.00
  7611.2830        1.9228431        306910.00
  7615.6570        1.9135669        306760.00
  7620.0500        1.9091049        306629.00
  7624.4620        1.9075425        306669.00
  7628.8940        1.9030337        306463.00
  7633.3440        1.8951187        306502.00
  7637.8130        1.8823691        306567.00
  7642.3020        1.8695844        306538.00
  7646.8100        1.8578396        306433.00
  7651.3360        1.8498703        306487.00
  7655.8820        1.8433461        306345.00
  7660.4470        1.8387363        304477.00
  7665.0300        1.8371697        307956.00
  7669.6340        1.8361621        306429.00
  7674.2550        1.8344345        306401.00
  7678.8960        1.8328550        306205.00
  7683.5570        1.8291671        306417.00
  7688.2360        1.8217412        306283.00
  7692.9350        1.8109969        306221.00
  7697.6520        1.8011147        306135.00
  7702.3890        1.7923463        306128.00
  7707.1440        1.7833279        306170.00
  7711.9190        1.7710337        306102.00
  7716.7120        1.7605456        306136.00
  7721.5250        1.7504258        306030.00
  7726.3570        1.7426178        306009.00
  7731.2080        1.7359066        305863.00
  7736.0780        1.7286356        301884.00
  7740.9670        1.7224241        310108.00
  7745.8750        1.7149571        306023.00
  7750.8030        1.7084779        305758.00
  7755.7500        1.7027113        305910.00
  7760.7150        1.6933748        305835.00
  7765.6990        1.6838212        305744.00
  7770.7030        1.6739182        305803.00
  7775.7260        1.6651225        305377.00
  7780.7670        1.6569284        306099.00
  7785.8280        1.6495132        306164.00
  7790.9080        1.6418425        305565.00
  7796.0070        1.6354281        305628.00
  7801.1250        1.6294200        305654.00
  7806.2620        1.6242935        305578.00
  7811.4180        1.6175598        305599.00
  7816.5940        1.6129522        305579.00
  7821.7880        1.6052311        305529.00
  7827.0010        1.5992802        304815.00
  7832.2340        1.5923981        306067.00
  7837.4850        1.5862131        305406.00
  7842.7560        1.5794166        305448.00
  7848.0460        1.5715734        305334.00
  7853.3540        1.5644376        305400.00
  7858.6830        1.5559114        305447.00
  7864.0300        1.5474309        305316.00
  7869.3960        1.5385158        305289.00
  7874.7810        1.5297804        305224.00
  7880.1850        1.5204756        305247.00
  7885.6080        1.5122136        305335.00
  7891.0510        1.5046829        305120.00
  7896.5120        1.4965190        305100.00
  7901.9920        1.4885534        305258.00
  7907.4920        1.4803040        305022.00
  7913.0110        1.4728207        305077.00
  7918.5480        1.4646895        305081.00
  7924.1050        1.4578068        305025.00
  7929.6810        1.4501718        304935.00
  7935.2760        1.4432641        305114.00
  7940.8900        1.4376191        304546.00
  7946.5230        1.4310495        305275.00
  7952.1750        1.4236089        304814.00
  7957.8470        1.4173017        304878.00
  7963.5370        1.4099801        304792.00
  7969.2470        1.4023708        305018.00
