#XDI/1.1  GSE/2.0
# Column.1: energy eV
# Column.2: ifluor
# Column.3: i0
# Scan.end_time: 2018-02-22 14:43:59
# Scan.start_time: 2018-02-22 14:38:55
# Element.symbol:  S
# Element.edge:  K
# Mono.d_spacing:  3.13477
# Mono.name: Si 111
# Sample.formula: CaS
# Sample.name: calcium sulfide
# Sample.prep: powder on tape halogen-free tape
# Sample.temperature: room temperature
# Facility.Name:  APS
# Beamline.Name:  13-ID-E
# Beamline.xray_source:  3.6cm undulator
# Beamline.I0: He, 200 cm
# Beamline.If: 4-element SDD (Vortex ME-4)
# ScanParameters.ScanType: xafs
# ScanParameters.E0: 2472.000
# ScanParameters.Legend:  Start, Stop, Step, K-space, Time
# ScanParameters.Region1:    -25.000,   -10.000,     1.500  False  1.00
# ScanParameters.Region2:    -10.000,    15.000,     0.100  False  1.00
# ScanParameters.Region3:     15.000,    75.000,     1.500  False  1.00
#-------------------------
#  energy  ifluor  i0
    2446.999       653.06   9679181.00
    2448.498       707.07   9683376.00
    2449.998       831.09  10622636.00
    2451.498       966.12  11031628.00
    2452.998      1067.13  11324962.00
    2454.498      1156.16  11662222.00
    2455.998      1266.17  11734400.00
    2457.498      1320.18  11564591.00
    2458.999      1453.20  11477998.00
    2460.411      1513.20  11105553.00
    2461.475      1642.22  10942752.00
    2462.012      1701.23  10862897.00
    2462.201      1786.24  10925433.00
    2462.301      1714.23  10878051.00
    2462.401      1817.25  10828407.00
    2462.502      1826.25  10816978.00
    2462.602      1789.24  10851867.00
    2462.702      1821.25  10933062.00
    2462.802      1892.26  10826049.00
    2462.902      1782.24  10805018.00
    2463.001      1906.26  10791861.00
    2463.101      1933.27  10768236.00
    2463.201      1874.25  10756899.00
    2463.301      1921.25  10765811.00
    2463.401      1944.27  10784730.00
    2463.501      1945.26  10800254.00
    2463.601      2047.28  10838675.00
    2463.701      1918.25  10715015.00
    2463.802      2021.28  10681107.00
    2463.902      2021.27  10610166.00
    2464.001      2031.28  10737530.00
    2464.101      1987.27  10776204.00
    2464.201      2057.28  10883709.00
    2464.301      2075.28  10882339.00
    2464.401      2108.29  10851218.00
    2464.501      2170.30  10834032.00
    2464.601      2181.29  10906091.00
    2464.702      2240.31  10930532.00
    2464.802      2222.30  10962594.00
    2464.902      2216.31  10952193.00
    2465.002      2290.31  10990709.00
    2465.102      2417.34  11062447.00
    2465.202      2340.33  11161070.00
    2465.302      2448.35  11198718.00
    2465.401      2411.34  11320207.00
    2465.501      2443.35  11333333.00
    2465.602      2613.39  11314473.00
    2465.702      2587.37  11288254.00
    2465.802      2697.41  11341614.00
    2465.902      2719.42  11351229.00
    2466.002      2756.42  11316554.00
    2466.102      2860.45  11269436.00
    2466.202      2849.44  11334455.00
    2466.302      2904.47  11336123.00
    2466.402      2969.47  11331734.00
    2466.501      3011.48  11282308.00
    2466.601      3171.52  11287132.00
    2466.702      3161.51  11251845.00
    2466.801      3219.53  11325557.00
    2466.901      3473.60  11318175.00
    2467.001      3429.58  11291808.00
    2467.101      3558.62  11314520.00
    2467.202      3531.62  11334445.00
    2467.302      3732.65  11299467.00
    2467.402      3783.69  11255611.00
    2467.501      3945.72  11253255.00
    2467.602      3943.72  11278575.00
    2467.702      4086.77  11328597.00
    2467.801      4248.80  11328660.00
    2467.901      4327.84  11337055.00
    2468.002      4438.87  11309621.00
    2468.102      4782.98  11363391.00
    2468.202      4876.00  11336027.00
    2468.302      4972.05  11404629.00
    2468.402      5237.15  11366525.00
    2468.501      5294.16  11363975.00
    2468.602      5504.21  11338442.00
    2468.702      5726.31  11358552.00
    2468.802      6006.44  11374448.00
    2468.902      6222.52  11423072.00
    2469.001      6560.62  11385550.00
    2469.101      6783.74  11422405.00
    2469.201      7079.87  11472136.00
    2469.301      7373.99  11444915.00
    2469.401      7873.22  11452039.00
    2469.501      8410.50  11406665.00
    2469.601      8733.68  11401378.00
    2469.701      9451.08  11364116.00
    2469.802     10006.43  11380818.00
    2469.902     10641.82  11388230.00
    2470.001     11317.23  11355987.00
    2470.102     12360.98  11395998.00
    2470.202     13446.89  11408725.00
    2470.301     14766.93  11386262.00
    2470.401     16070.13  11386641.00
    2470.501     18055.98  11436067.00
    2470.602     20596.77  11470209.00
    2470.702     22915.65  11423070.00
    2470.802     26457.71  11400350.00
    2470.901     30307.75  11343942.00
    2471.001     35043.73  11370156.00
    2471.101     40688.29  11430304.00
    2471.201     46292.35  11447485.00
    2471.301     52024.57  11409495.00
    2471.401     58952.59  11381224.00
    2471.501     64218.44  11399538.00
    2471.601     69783.27  11398348.00
    2471.701     76655.00  11364334.00
    2471.801     80624.36  11414690.00
    2471.901     84580.22  11490809.00
    2472.001     89007.17  11451144.00
    2472.101     92377.41  11467527.00
    2472.201     94645.97  11446067.00
    2472.302     98815.38  11562358.00
    2472.401    100341.16  11560754.00
    2472.501    102707.21  11578102.00
    2472.601    104263.39  11579623.00
    2472.701    105742.09  11637676.00
    2472.801    106623.67  11676043.00
    2472.901    108274.87  11645500.00
    2473.002    108492.81  11641808.00
    2473.102    108984.91  11591006.00
    2473.202    108460.10  11531677.00
    2473.302    108748.48  11548507.00
    2473.401    108427.41  11626788.00
    2473.502    108743.55  11600558.00
    2473.601    109654.38  11615340.00
    2473.701    110538.54  11597543.00
    2473.801    112040.90  11606769.00
    2473.901    114232.24  11614740.00
    2474.002    115757.29  11563487.00
    2474.102    117044.59  11602277.00
    2474.202    117106.91  11720603.00
    2474.302    116992.06  11682944.00
    2474.402    116469.37  11656243.00
    2474.502    115761.69  11649099.00
    2474.601    115570.09  11686142.00
    2474.701    113424.96  11732855.00
    2474.801    113067.38  11733705.00
    2474.901    112833.30  11688171.00
    2475.001    111879.84  11702346.00
    2475.102    111714.04  11722028.00
    2475.201    110226.60  11709527.00
    2475.301    110038.31  11781262.00
    2475.401    107459.62  11765856.00
    2475.502    107263.86  11760809.00
    2475.602    106499.91  11755650.00
    2475.702    105113.54  11768077.00
    2475.801    105247.68  11716572.00
    2475.901    104603.33  11700997.00
    2476.001    104314.39  11790988.00
    2476.101    104114.64  11780980.00
    2476.202    105686.13  11701426.00
    2476.301    107583.42  11405731.00
    2476.401    108297.01  11817914.00
    2476.501    110446.22  11793623.00
    2476.601    114024.73  11580768.00
    2476.702    114480.25  11830689.00
    2476.801    116606.92  11805332.00
    2476.901    118387.21  11820671.00
    2477.002    121752.94  11841574.00
    2477.102    122364.70  11837529.00
    2477.202    123930.32  11810346.00
    2477.301    123510.35  11837844.00
    2477.401    124903.16  11833779.00
    2477.501    125593.77  11794084.00
    2477.601    126170.82  11775577.00
    2477.702    126494.93  11637914.00
    2477.801    125859.86  11832404.00
    2477.901    123547.34  11743721.00
    2478.002    120688.94  11559225.00
    2478.101    116313.33  11861438.00
    2478.202    113534.32  11900034.00
    2478.301    110616.31  11894081.00
    2478.401    106778.58  11908538.00
    2478.502    103057.73  11889382.00
    2478.602    100446.57  11856018.00
    2478.701     95917.31  11920764.00
    2478.801     92257.47  11945998.00
    2478.901     89533.32  11958128.00
    2479.001     86458.92  11991046.00
    2479.101     83738.94  11969352.00
    2479.201     81767.32  11953890.00
    2479.301     79714.90  11961956.00
    2479.401     77256.50  11966364.00
    2479.502     74589.74  11987143.00
    2479.602     73972.33  11962637.00
    2479.702     71438.72  11987965.00
    2479.802     69872.02  11958895.00
    2479.902     68521.22  11957485.00
    2480.001     66823.36  11978339.00
    2480.101     65432.23  11965137.00
    2480.201     63986.58  11983901.00
    2480.302     62655.60  11963200.00
    2480.402     61980.66  11901168.00
    2480.502     59551.77  11951494.00
    2480.601     58833.54  11971521.00
    2480.702     58384.96  11909387.00
    2480.802     56834.73  11914455.00
    2480.901     56123.57  11984974.00
    2481.001     56385.98  11963900.00
    2481.101     56449.68  11906627.00
    2481.201     55898.53  11973467.00
    2481.301     56828.65  11954643.00
    2481.401     57952.45  11942168.00
    2481.502     58263.74  11925704.00
    2481.602     59891.11  11922200.00
    2481.702     60732.70  11958823.00
    2481.802     62831.78  11945747.00
    2481.901     64939.42  12017263.00
    2482.002     65720.75  12036627.00
    2482.101     67797.16  12007547.00
    2482.201     69310.23  12014230.00
    2482.301     70711.64  11996259.00
    2482.401     72611.84  11989162.00
    2482.501     73365.18  12016768.00
    2482.601     73951.76  12018659.00
    2482.702     75761.85  12024800.00
    2482.801     76916.82  12035115.00
    2482.901     77207.30  12029307.00
    2483.001     77258.24  12078252.00
    2483.101     77602.73  12047525.00
    2483.201     77663.54  12106303.00
    2483.302     77450.67  12145115.00
    2483.401     76969.30  12190273.00
    2483.501     76808.91  12229631.00
    2483.601     77072.06  12224402.00
    2483.701     76679.53  12209292.00
    2483.802     77485.87  12186616.00
    2483.901     77891.18  12193551.00
    2484.001     79261.63  12188627.00
    2484.101     80860.36  12152474.00
    2484.201     81139.42  12064392.00
    2484.301     83019.91  12216983.00
    2484.401     82591.90  12204276.00
    2484.502     82855.52  12226013.00
    2484.602     83476.28  12202085.00
    2484.701     85073.02  12155934.00
    2484.802     84719.28  12150708.00
    2484.902     85666.78  12147484.00
    2485.002     85075.62  12207949.00
    2485.101     86140.02  12244822.00
    2485.201     86664.84  12224137.00
    2485.301     87939.11  12176792.00
    2485.402     88154.70  12115048.00
    2485.501     89015.27  12178581.00
    2485.601     89520.93  12157289.00
    2485.702     90865.88  12116881.00
    2485.801     91720.86  12071705.00
    2485.902     92005.66  12052362.00
    2486.001     91782.83  12073936.00
    2486.101     92154.89  12140090.00
    2486.201     92349.40  12145961.00
    2486.302     92472.43  12097888.00
    2486.402     92341.10  12199221.00
    2486.501     93022.67  12208801.00
    2486.602     92565.78  12197063.00
    2486.702     92877.03  12240772.00
    2486.802     92845.75  12365593.00
    2486.990     94549.41  12607060.00
    2487.527     95088.20  12742326.00
    2488.588     88288.36  12611038.00
    2490.000     90245.73  12617435.00
    2491.499     94069.33  12678970.00
    2492.999     96703.53  12497869.00
    2494.499    106805.84  12518769.00
    2495.999    112524.10  12204086.00
    2497.499    110602.25  12286832.00
    2498.999    100988.17  12279685.00
    2500.499     94130.51  12336276.00
    2501.999     95061.00  12527996.00
    2503.499     96313.43  12284907.00
    2504.999    101353.06  12694271.00
    2506.499    101901.61  12694815.00
    2508.000     99349.08  12467954.00
    2509.499    102585.29  12186089.00
    2510.998    105890.48  12437158.00
    2512.499    110757.92  12454293.00
    2513.999    114199.14  12649970.00
    2515.499    116160.47  12452549.00
    2516.999    118889.05  12459916.00
    2518.499    118500.82  12587502.00
    2519.999    116972.37  12637348.00
    2521.499    116542.05  12746737.00
    2522.999    116968.14  12748141.00
    2524.499    120885.54  12803400.00
    2525.999    124178.52  12626052.00
    2527.499    126518.31  12650723.00
    2528.999    124988.39  12553663.00
    2530.499    122088.83  12656847.00
    2531.999    117019.36  12688681.00
    2533.500    114418.43  12469209.00
    2534.999    110966.27  12088216.00
    2536.499    113948.98  12084581.00
    2537.999    116770.26  12188354.00
    2539.500    117658.61  11989748.00
    2541.000    118512.82  12009281.00
    2542.500    116991.12  11883192.00
    2544.000    117175.50  11851407.00
