#XDI/1.1  GSE/2.0
# Column.1: energy eV
# Column.2: ifluor
# Column.3: i0
# Scan.end_time: 2018-02-22 14:50:34
# Scan.start_time: 2018-02-22 14:45:31
# Element.symbol:  S
# Element.edge:  K
# Mono.d_spacing:  3.13477
# Mono.name: Si 111
# Sample.formula: CaS
# Sample.name: calcium sulfide
# Sample.prep: powder on tape halogen-free tape
# Sample.temperature: room temperature
# Facility.Name:  APS
# Beamline.Name:  13-ID-E
# Beamline.xray_source:  3.6cm undulator
# Beamline.I0: He,  20 cm
# Beamline.If: 4-element SDD (Vortex ME-4)
# ScanParameters.ScanType: xafs
# ScanParameters.E0: 2472.000
# ScanParameters.Legend:  Start, Stop, Step, K-space, Time
# ScanParameters.Region1:    -25.000,   -10.000,     1.500  False  1.00
# ScanParameters.Region2:    -10.000,    15.000,     0.100  False  1.00
# ScanParameters.Region3:     15.000,    75.000,     1.500  False  1.00
#-------------------------
#  energy  ifluor  i0
    2446.999       166.00   9423680.00
    2448.498       202.01   9661766.00
    2449.998       194.01  10710902.00
    2451.498       181.01  11206240.00
    2452.998       221.01  11544775.00
    2454.498       235.01  11984082.00
    2455.999       248.01  12108843.00
    2457.498       252.01  11983172.00
    2458.998       273.01  11963777.00
    2460.412       253.01  11581531.00
    2461.475       307.01  11493067.00
    2462.012       299.01  11439641.00
    2462.200       299.01  11286595.00
    2462.301       276.01  11344017.00
    2462.401       324.01  11363105.00
    2462.501       325.01  11360927.00
    2462.601       307.01  11352951.00
    2462.701       341.01  11293319.00
    2462.802       323.01  11287667.00
    2462.901       319.01  11327872.00
    2463.001       319.01  11284210.00
    2463.101       350.01  11312068.00
    2463.201       305.01  11259891.00
    2463.301       328.01  11250482.00
    2463.401       354.01  11188749.00
    2463.501       322.01  11116306.00
    2463.601       345.01  10992453.00
    2463.701       328.01  11040240.00
    2463.801       337.01  11104264.00
    2463.901       352.01  11131314.00
    2464.001       357.01  11138741.00
    2464.101       355.01  11181555.00
    2464.201       354.01  11229007.00
    2464.301       386.01  11222437.00
    2464.401       372.01  11217535.00
    2464.502       386.01  11161021.00
    2464.601       433.02  11153151.00
    2464.701       396.01  11207069.00
    2464.801       446.02  11241560.00
    2464.901       403.01  11281863.00
    2465.001       414.01  11276443.00
    2465.102       424.01  11313948.00
    2465.202       408.02  11308913.00
    2465.301       432.02  11274444.00
    2465.401       438.02  11290616.00
    2465.501       460.02  11342039.00
    2465.602       465.02  11355531.00
    2465.701       455.02  11343628.00
    2465.801       478.02  11370060.00
    2465.901       499.02  11375566.00
    2466.001       478.02  11370983.00
    2466.101       502.02  11376750.00
    2466.201       479.02  11318354.00
    2466.301       529.02  11378569.00
    2466.401       519.02  11374664.00
    2466.501       531.02  11318145.00
    2466.602       531.02  11305553.00
    2466.702       590.02  11316564.00
    2466.802       576.02  11361907.00
    2466.902       604.02  11377578.00
    2467.002       604.02  11356957.00
    2467.101       611.03  11302801.00
    2467.201       643.03  11290938.00
    2467.301       622.02  11221994.00
    2467.402       675.03  11255651.00
    2467.501       649.03  11312247.00
    2467.601       662.03  11263125.00
    2467.701       667.03  11319369.00
    2467.801       669.03  11321144.00
    2467.901       744.03  11243864.00
    2468.001       773.04  11230550.00
    2468.101       818.04  11318854.00
    2468.201       800.04  11339380.00
    2468.301       853.04  11315489.00
    2468.401       938.05  11376588.00
    2468.501       931.05  11438325.00
    2468.601       928.05  11408589.00
    2468.701      1000.05  11418066.00
    2468.801       985.05  11389249.00
    2468.902      1075.06  11431693.00
    2469.002      1102.06  11462665.00
    2469.101      1156.07  11462787.00
    2469.201      1186.07  11456533.00
    2469.301      1208.07  11446177.00
    2469.402      1340.08  11377809.00
    2469.502      1402.09  11336234.00
    2469.602      1462.10  11343716.00
    2469.701      1545.10  11339546.00
    2469.801      1630.11  11384438.00
    2469.901      1821.13  11362412.00
    2470.001      1816.14  11341563.00
    2470.102      2010.16  11337137.00
    2470.202      2085.17  11344806.00
    2470.302      2375.21  11363084.00
    2470.401      2506.23  11401734.00
    2470.501      2986.31  11398660.00
    2470.601      3331.37  11444962.00
    2470.701      3729.46  11533114.00
    2470.801      4212.56  11491217.00
    2470.901      5000.76  11513125.00
    2471.001      5723.01  11594409.00
    2471.101      6462.26  11533234.00
    2471.201      7333.58  11534445.00
    2471.301      8119.91  11482798.00
    2471.402      8979.29  11489315.00
    2471.502      9957.85  11442519.00
    2471.602     10717.26  11454946.00
    2471.701     11567.81  11473600.00
    2471.801     12221.18  11459129.00
    2471.901     12888.67  11465496.00
    2472.001     13241.90  11470507.00
    2472.101     14066.53  11581996.00
    2472.201     14527.95  11565332.00
    2472.301     14796.06  11543617.00
    2472.401     15335.55  11540138.00
    2472.501     15572.78  11534644.00
    2472.602     15827.97  11520110.00
    2472.701     16112.25  11519876.00
    2472.801     16353.47  11611178.00
    2472.901     16426.45  11620734.00
    2473.001     16153.28  11643193.00
    2473.101     16268.30  11605017.00
    2473.202     16041.13  11563493.00
    2473.301     16287.36  11631978.00
    2473.401     15868.00  11544511.00
    2473.501     16088.25  11510341.00
    2473.601     16751.73  11576838.00
    2473.701     16648.71  11657480.00
    2473.801     17062.99  11656575.00
    2473.902     17104.17  11671320.00
    2474.002     17198.24  11662235.00
    2474.102     17285.31  11610697.00
    2474.202     17257.21  11598737.00
    2474.302     17600.57  11661375.00
    2474.402     17271.27  11705863.00
    2474.502     17690.78  11726020.00
    2474.601     17253.34  11716071.00
    2474.701     17481.39  11763885.00
    2474.801     17222.29  11792716.00
    2474.901     17336.32  11829964.00
    2475.002     17154.17  11787869.00
    2475.102     16826.81  11754513.00
    2475.201     16782.79  11705307.00
    2475.301     16426.49  11739369.00
    2475.401     16332.49  11737497.00
    2475.502     16168.36  11705384.00
    2475.602     15879.07  11623870.00
    2475.702     15647.80  11620800.00
    2475.802     15563.75  11564374.00
    2475.901     15514.69  11583293.00
    2476.002     15600.73  11511318.00
    2476.101     15794.91  11555056.00
    2476.201     15946.06  11596981.00
    2476.302     16280.33  11275349.00
    2476.402     16370.42  11722528.00
    2476.501     16805.79  11699406.00
    2476.600     16842.88  11573694.00
    2476.701     17493.52  11825256.00
    2476.801     17328.33  11778963.00
    2476.902     18002.01  11749071.00
    2477.002     17929.97  11711271.00
    2477.102     18005.00  11630037.00
    2477.202     18241.20  11746359.00
    2477.302     18578.54  11745226.00
    2477.401     18819.82  11720866.00
    2477.501     19140.00  11702892.00
    2477.601     19028.04  11698754.00
    2477.702     18930.94  11609222.00
    2477.802     19077.06  11825099.00
    2477.902     18748.70  11742931.00
    2478.001     18335.36  11499696.00
    2478.101     17827.86  11804149.00
    2478.201     17163.25  11869014.00
    2478.301     17207.14  11900505.00
    2478.401     16606.62  11868472.00
    2478.501     15948.13  11885450.00
    2478.602     15671.82  11869422.00
    2478.702     15257.53  11916281.00
    2478.802     14621.98  11877590.00
    2478.901     14176.63  11900252.00
    2479.001     13574.24  11887667.00
    2479.102     13566.18  11908182.00
    2479.202     13212.85  11959124.00
    2479.302     12529.44  11919594.00
    2479.401     12450.39  11945103.00
    2479.501     12038.09  11915971.00
    2479.601     11856.95  11876334.00
    2479.701     11619.81  11889448.00
    2479.801     11095.50  11828100.00
    2479.902     10957.44  11820933.00
    2480.001     10566.21  11797381.00
    2480.102     10644.22  11841838.00
    2480.202     10377.05  11913790.00
    2480.302     10131.91  11903670.00
    2480.402      9828.81  11925031.00
    2480.502      9935.84  12015768.00
    2480.602      9374.51  11964130.00
    2480.702      9208.47  11891396.00
    2480.802      9204.46  11973089.00
    2480.901      9181.38  12042474.00
    2481.001      8872.27  12023605.00
    2481.102      9032.31  11957307.00
    2481.202      8934.30  11912032.00
    2481.302      9238.45  11973601.00
    2481.402      9300.49  12022165.00
    2481.502      9327.52  12027221.00
    2481.602      9739.73  12092252.00
    2481.702      9854.79  12082180.00
    2481.802     10114.91  12059115.00
    2481.901     10326.04  12131399.00
    2482.001     10768.32  12133288.00
    2482.101     11256.60  12189492.00
    2482.201     11349.67  12187683.00
    2482.301     11803.92  12178417.00
    2482.401     11969.11  12165976.00
    2482.502     12088.17  12177586.00
    2482.602     12696.51  12188030.00
    2482.702     12554.48  12171325.00
    2482.802     12883.65  12136821.00
    2482.902     13025.81  12094259.00
    2483.001     13223.90  12154468.00
    2483.102     13313.03  12141584.00
    2483.202     13212.98  12062028.00
    2483.302     13642.23  12109588.00
    2483.402     14043.55  12201405.00
    2483.502     13726.27  12192847.00
    2483.602     13600.21  12194896.00
    2483.701     14006.50  12168447.00
    2483.801     14363.81  12260883.00
    2483.901     14157.64  12275120.00
    2484.001     14262.73  12262534.00
    2484.101     14402.85  12235254.00
    2484.202     14636.91  12200590.00
    2484.302     14388.80  12195020.00
    2484.402     14496.85  12231273.00
    2484.502     15073.37  12282032.00
    2484.601     15014.32  12286345.00
    2484.702     15096.40  12252877.00
    2484.802     15287.51  12255202.00
    2484.902     15454.72  12226206.00
    2485.002     15547.72  12163566.00
    2485.102     16115.19  12181389.00
    2485.201     15871.01  12120097.00
    2485.301     16229.25  12107525.00
    2485.401     15973.20  12089600.00
    2485.501     16388.49  12096640.00
    2485.601     16276.45  12101522.00
    2485.701     17076.11  12102592.00
    2485.801     17414.44  12178735.00
    2485.901     17231.26  12162926.00
    2486.001     17075.22  12110571.00
    2486.101     17597.64  12081506.00
    2486.201     17806.79  12107546.00
    2486.302     17927.02  12193157.00
    2486.402     18059.13  12151733.00
    2486.502     18201.18  12189732.00
    2486.602     18142.19  12156281.00
    2486.702     18487.50  12151923.00
    2486.802     18230.26  12314164.00
    2486.989     18238.15  12536203.00
    2487.526     17708.71  12675876.00
    2488.588     16986.05  12518985.00
    2490.000     16617.67  12558012.00
    2491.499     15946.17  12587765.00
    2493.000     16002.20  12216678.00
    2494.500     16819.93  12253418.00
    2496.000     17055.07  12041561.00
    2497.499     16563.66  12067125.00
    2498.999     15665.84  12283874.00
    2500.499     14181.62  12305955.00
    2501.999     14068.57  12282002.00
    2503.500     14278.70  12269811.00
    2505.000     14306.82  12607885.00
    2506.499     15000.21  12562181.00
    2507.999     15207.46  12191524.00
    2509.499     15133.40  12238199.00
    2510.999     14776.15  12127138.00
    2512.499     15601.77  12433274.00
    2513.999     15736.88  12415794.00
    2515.499     15698.87  12405693.00
    2516.999     15813.97  12521914.00
    2518.499     15758.93  12531657.00
    2519.999     15728.88  12678513.00
    2521.499     15082.31  12348875.00
    2522.999     15076.44  12462232.00
    2524.499     15203.48  12332954.00
    2525.999     16011.15  12582053.00
    2527.499     15972.19  12528662.00
    2528.999     16088.18  12674534.00
    2530.500     15435.62  12620260.00
    2531.999     15205.47  12609595.00
    2533.499     14570.87  12427707.00
    2534.999     13603.18  11887110.00
    2536.499     14064.48  12237899.00
    2537.999     13900.42  12070121.00
    2539.500     14332.77  12223940.00
    2541.000     13751.32  12034971.00
    2542.500     13493.13  11849782.00
    2544.000     13188.83  11608458.00
