#XDI/1.1  GSE/2.0
# Column.1: energy eV
# Column.2: ifluor
# Column.3: i0
# Scan.end_time: 2018-02-22 14:38:05
# Scan.start_time: 2018-02-22 14:33:01
# Element.symbol:  S
# Element.edge:  K
# Mono.d_spacing:  3.13477
# Mono.name: Si 111
# Sample.formula: CaS
# Sample.name: calcium sulfide
# Sample.prep: powder on tape halogen-free tape
# Sample.temperature: room temperature
# Facility.Name:  APS
# Beamline.Name:  13-ID-E
# Beamline.xray_source:  3.6cm undulator
# Beamline.I0: He, 200 cm
# Beamline.If: 4-element SDD (Vortex ME-4)
# ScanParameters.ScanType: xafs
# ScanParameters.E0: 2472.000
# ScanParameters.Legend:  Start, Stop, Step, K-space, Time
# ScanParameters.Region1:    -25.000,   -10.000,     1.500  False  1.00
# ScanParameters.Region2:    -10.000,    15.000,     0.100  False  1.00
# ScanParameters.Region3:     15.000,    75.000,     1.500  False  1.00
#-------------------------
#  energy  ifluor  i0
    2446.998       784.10   9648067.00
    2448.497       830.11   9691054.00
    2449.998       947.14  10550493.00
    2451.498      1059.16  11093610.00
    2452.998      1141.19  11371319.00
    2454.498      1157.18  11800425.00
    2455.998      1192.18  11767567.00
    2457.499      1288.20  11738994.00
    2458.999      1363.19  11626691.00
    2460.412      1542.23  11292904.00
    2461.475      1596.23  11226333.00
    2462.012      1588.23  11153967.00
    2462.200      1735.25  11115371.00
    2462.301      1709.24  11121144.00
    2462.402      1726.25  11144135.00
    2462.502      1741.25  11132764.00
    2462.602      1903.28  11111828.00
    2462.701      1790.25  11073085.00
    2462.801      1788.26  11083952.00
    2462.901      1889.28  11093049.00
    2463.001      1858.27  11132051.00
    2463.102      1913.28  11071285.00
    2463.201      1912.28  11069974.00
    2463.301      1935.29  11035314.00
    2463.401      1917.29  11092733.00
    2463.501      2125.32  11075626.00
    2463.601      1996.30  11071441.00
    2463.701      2014.30  11058768.00
    2463.802      2052.31  11075805.00
    2463.902      2089.32  11094732.00
    2464.002      2023.30  11047725.00
    2464.101      2227.35  11084776.00
    2464.201      2268.36  11163031.00
    2464.301      2201.35  11140000.00
    2464.401      2342.37  11121073.00
    2464.502      2380.40  11161617.00
    2464.602      2341.37  11116557.00
    2464.701      2362.38  11110002.00
    2464.801      2410.40  11132358.00
    2464.901      2620.44  11110107.00
    2465.001      2501.41  11084523.00
    2465.101      2472.41  11102785.00
    2465.201      2655.45  11174977.00
    2465.301      2630.46  11219280.00
    2465.402      2716.46  11221026.00
    2465.501      2689.46  11270210.00
    2465.601      2732.46  11282889.00
    2465.702      2701.45  11214674.00
    2465.801      2819.48  11224583.00
    2465.901      2847.49  11237259.00
    2466.001      2920.51  11171032.00
    2466.101      3002.52  11209193.00
    2466.201      3133.57  11290467.00
    2466.301      3189.57  11252295.00
    2466.401      3163.57  11290314.00
    2466.502      3279.61  11308589.00
    2466.602      3385.64  11257611.00
    2466.702      3414.61  11224769.00
    2466.802      3503.64  11293472.00
    2466.902      3585.67  11314916.00
    2467.001      3705.71  11288513.00
    2467.101      3792.74  11268811.00
    2467.201      3798.74  11331232.00
    2467.301      3899.77  11292143.00
    2467.401      3943.78  11236589.00
    2467.502      4129.83  11213991.00
    2467.602      4068.81  11210535.00
    2467.701      4368.91  11238748.00
    2467.801      4429.93  11270083.00
    2467.902      4567.96  11250453.00
    2468.001      4831.03  11256124.00
    2468.101      4959.10  11272606.00
    2468.202      5064.13  11298251.00
    2468.302      5422.27  11313448.00
    2468.402      5585.34  11361221.00
    2468.501      5702.37  11350916.00
    2468.601      6006.48  11303604.00
    2468.701      6134.54  11281766.00
    2468.801      6510.69  11400513.00
    2468.902      6676.81  11452657.00
    2469.001      7018.95  11473564.00
    2469.101      7303.10  11447204.00
    2469.201      7811.30  11445944.00
    2469.301      8054.43  11387949.00
    2469.401      8467.61  11314988.00
    2469.501      9042.93  11348419.00
    2469.601      9583.27  11389926.00
    2469.701     10185.60  11387042.00
    2469.801     11154.27  11416397.00
    2469.902     11608.56  11401261.00
    2470.002     12234.02  11363934.00
    2470.101     13208.81  11418925.00
    2470.202     14602.02  11475554.00
    2470.302     16035.20  11433595.00
    2470.402     17301.41  11388185.00
    2470.502     19553.67  11355198.00
    2470.602     21861.54  11432934.00
    2470.702     24853.33  11374019.00
    2470.802     28312.63  11375694.00
    2470.901     32705.18  11409253.00
    2471.001     37657.49  11402441.00
    2471.101     42900.88  11461683.00
    2471.201     49188.53  11445751.00
    2471.301     54456.83  11424711.00
    2471.401     61112.77  11475806.00
    2471.502     67590.40  11488202.00
    2471.602     72432.52  11359791.00
    2471.702     78092.87  11453594.00
    2471.802     83837.19  11514278.00
    2471.901     88227.27  11563057.00
    2472.001     91878.56  11555854.00
    2472.102     94291.80  11528699.00
    2472.202     97078.68  11545586.00
    2472.302    100078.51  11542628.00
    2472.401    102839.82  11572166.00
    2472.502    104405.17  11582762.00
    2472.602    106156.48  11611661.00
    2472.701    107476.27  11610738.00
    2472.801    108088.57  11610852.00
    2472.902    109470.61  11610258.00
    2473.002    108913.17  11576288.00
    2473.102    109744.76  11592552.00
    2473.202    108365.98  11591090.00
    2473.302    109571.82  11626396.00
    2473.401    110116.95  11631370.00
    2473.501    109995.38  11565362.00
    2473.601    110221.80  11547426.00
    2473.702    111990.29  11578079.00
    2473.802    113136.79  11595725.00
    2473.901    114117.16  11629662.00
    2474.001    115917.11  11658097.00
    2474.101    117020.75  11658345.00
    2474.201    118062.53  11679912.00
    2474.301    117370.07  11711172.00
    2474.401    118047.64  11770964.00
    2474.501    117368.36  11740626.00
    2474.601    115296.38  11625217.00
    2474.701    115784.05  11668416.00
    2474.802    114902.24  11693898.00
    2474.901    114821.92  11743736.00
    2475.001    114579.78  11772105.00
    2475.101    113657.24  11753664.00
    2475.201    113579.89  11778815.00
    2475.301    111440.42  11748126.00
    2475.402    109878.44  11710000.00
    2475.501    109900.71  11725925.00
    2475.601    107637.64  11703764.00
    2475.702    106802.62  11715952.00
    2475.802    106807.88  11775470.00
    2475.902    106609.34  11728648.00
    2476.002    107057.19  11705360.00
    2476.101    107781.51  11716898.00
    2476.202    109774.83  11681950.00
    2476.301    110277.54  11409424.00
    2476.401    111270.48  11801487.00
    2476.502    113972.11  11779283.00
    2476.602    116202.57  11551013.00
    2476.701    117012.45  11717615.00
    2476.801    117655.37  11703788.00
    2476.901    121297.07  11765816.00
    2477.001    122490.10  11758824.00
    2477.101    124303.63  11817496.00
    2477.201    125870.90  11864096.00
    2477.301    127516.27  11864924.00
    2477.401    128551.36  11856534.00
    2477.501    129338.40  11807895.00
    2477.602    128604.88  11781695.00
    2477.702    129913.92  11559427.00
    2477.802    128579.08  11790838.00
    2477.902    126178.39  11767984.00
    2478.002    123594.05  11563634.00
    2478.102    120678.17  11892528.00
    2478.201    118360.19  11927105.00
    2478.302    114259.71  11917698.00
    2478.402    111163.91  11938598.00
    2478.502    108149.18  11926198.00
    2478.602    104083.45  11897225.00
    2478.701    101184.88  11874280.00
    2478.801     98736.97  11900353.00
    2478.901     96501.21  11960421.00
    2479.001     93223.56  11945361.00
    2479.102     89886.86  11872742.00
    2479.202     87784.86  11903169.00
    2479.302     85493.24  11893358.00
    2479.402     82941.05  11917780.00
    2479.501     80887.43  11890857.00
    2479.602     79726.88  11918207.00
    2479.702     77291.90  11886308.00
    2479.801     75726.61  11891358.00
    2479.901     73534.67  11779627.00
    2480.001     72407.07  11838569.00
    2480.102     71408.65  11975467.00
    2480.202     70475.23  11967497.00
    2480.302     68576.42  11945173.00
    2480.401     67205.96  11890661.00
    2480.501     65946.15  11901701.00
    2480.601     64569.44  11930756.00
    2480.701     64140.21  11927023.00
    2480.801     63753.21  11991913.00
    2480.902     62819.76  11978469.00
    2481.001     63036.23  11961092.00
    2481.102     63261.25  12007028.00
    2481.202     64010.07  12043681.00
    2481.302     64500.11  11993324.00
    2481.402     65693.24  11978552.00
    2481.502     66485.52  11959338.00
    2481.601     67956.99  11964950.00
    2481.701     69633.41  11917993.00
    2481.801     71423.41  11948304.00
    2481.901     73013.66  11971554.00
    2482.001     75229.60  12008748.00
    2482.101     77638.54  12063673.00
    2482.201     78912.43  12016858.00
    2482.301     81122.96  12056431.00
    2482.401     82242.09  12080373.00
    2482.502     83796.04  12111549.00
    2482.602     85038.26  12077373.00
    2482.701     85775.05  12050492.00
    2482.801     87488.71  12189151.00
    2482.901     87983.71  12197715.00
    2483.001     88581.81  12140663.00
    2483.101     89033.30  12109206.00
    2483.201     89090.17  12143971.00
    2483.301     89777.68  12195523.00
    2483.402     89924.97  12190792.00
    2483.502     89453.01  12177854.00
    2483.602     88994.10  12053382.00
    2483.701     89189.53  12133228.00
    2483.801     90188.55  12178539.00
    2483.901     91307.18  12250829.00
    2484.001     91715.31  12233945.00
    2484.101     92195.17  12204138.00
    2484.201     93076.44  12224498.00
    2484.301     93418.38  12245621.00
    2484.402     93462.68  12190003.00
    2484.502     93671.50  12083083.00
    2484.602     94408.30  12172508.00
    2484.702     95035.35  12170846.00
    2484.801     96155.58  12144363.00
    2484.901     96426.77  12084159.00
    2485.001     97359.88  12085926.00
    2485.102     97780.94  12039595.00
    2485.202     98529.03  12054612.00
    2485.301     99779.83  12058053.00
    2485.401    100982.30  12024577.00
    2485.501    101217.87  12023753.00
    2485.602    102432.04  12043065.00
    2485.702    103954.35  12061507.00
    2485.802    104695.44  12086690.00
    2485.902    105488.25  12093389.00
    2486.002    106658.24  12081262.00
    2486.102    107252.19  12093329.00
    2486.202    107818.94  12050951.00
    2486.302    108576.13  12082849.00
    2486.402    109152.50  12136556.00
    2486.501    110244.26  12143732.00
    2486.601    111159.27  12170112.00
    2486.702    111017.10  12147532.00
    2486.802    111061.48  12242488.00
    2486.989    112828.80  12465046.00
    2487.527    110683.15  12630315.00
    2488.588    105729.54  12662536.00
    2490.000    104975.11  12676303.00
    2491.499    106481.76  12625455.00
    2492.999    105433.17  12237326.00
    2494.499    112833.09  12266574.00
    2495.999    118006.77  12105743.00
    2497.499    114007.33  12106194.00
    2498.999    104395.79  12196845.00
    2500.499     98304.61  12242067.00
    2501.999     98151.60  12573987.00
    2503.499     98906.38  12476429.00
    2504.999    101422.61  12636621.00
    2506.499    103706.34  12672945.00
    2507.999    104956.67  12591412.00
    2509.499    104178.43  12295660.00
    2510.999    106211.67  12399005.00
    2512.499    110643.03  12553158.00
    2513.999    114350.39  12688816.00
    2515.499    115821.94  12663109.00
    2516.999    113954.16  12530990.00
    2518.499    115066.81  12633607.00
    2519.999    112763.47  12505770.00
    2521.499    112741.87  12727534.00
    2522.999    111540.22  12615309.00
    2524.499    115448.33  12727636.00
    2525.999    117998.89  12656758.00
    2527.499    121102.52  12818993.00
    2528.999    118049.65  12561695.00
    2530.499    114678.45  12560979.00
    2531.999    113208.58  12693194.00
    2533.499    106953.14  12373905.00
    2534.999    104052.38  12044155.00
    2536.499    104598.27  11951404.00
    2537.999    108354.63  12170570.00
    2539.499    107980.46  12086019.00
    2540.999    106698.29  11857661.00
    2542.499    105749.92  11800229.00
    2543.999    102507.06  11388414.00
