#XDI/1.1  GSE/1.0
# Column.1: energy eV
# Column.2: ifluor
# Column.3: i0
# Scan.end_time: 2013-07-29 21:00:53
# Scan.start_time: 2013-07-29 20:51:06
# Element.symbol:  S
# Element.edge:  K
# Mono.d_spacing:  3.13477
# Mono.name: Si 111
# Sample.formula: CaSO4
# Sample.name: calcium sulfate, gypsum
# Sample.prep: powder on halogen-free tape
# Sample.temperature: room temperature
# Facility.Name:  APS
# Beamline.Name:  13-ID-E
# Beamline.xray_source:  3.6cm undulator
# Beamline.I0: He, 200 cm
# Beamline.If: 4-element SDD (Vortex ME-4)
# ScanParameters.ScanType: xafs
# ScanParameters.E0: 2472.000
# ScanParameters.Start: Scan.Member: Value
# ScanParameters.E0: 2472.00
# ScanParameters.Legend: Start       Stop       Step       Npts       Time   Kspace?
# ScanParameters.Region1: 2450.0     2468.0     1.0000     19.000     2.0000   0
# ScanParameters.Region2: 2468.0     2500.0    0.20000     161.00     2.0000   0
# ScanParameters.Region3: 2500.0     2550.0     1.0000     51.000     2.0000   0
#-------------------------
#  energy  ifluor  i0
    2449.999     20567.7612    312776.00
    2451.000     21109.0910    315254.00
    2452.001     20942.9240    318488.00
    2453.001     20527.2785    326441.00
    2454.000     20592.2570    327796.00
    2455.000     20372.9746    330627.00
    2455.999     20377.2072    332906.00
    2456.999     19940.9497    335580.00
    2458.001     20110.2213    338690.00
    2459.000     19783.3629    341330.00
    2460.000     19729.5734    342659.00
    2461.000     19731.7247    343717.00
    2462.000     19175.4219    344589.00
    2463.000     19492.0068    347790.00
    2464.000     18945.0652    350281.00
    2465.000     19123.0997    350516.00
    2466.000     19048.2397    351883.00
    2467.000     18949.8000    354108.00
    2468.000     19061.2080    357664.00
    2468.201     18875.1788    358928.00
    2468.400     18864.9725    358589.00
    2468.601     18833.7395    359667.00
    2468.800     18987.9138    361088.00
    2469.001     18863.0268    361104.00
    2469.200     18671.8878    362253.00
    2469.402     18518.2490    362804.00
    2469.600     18464.0904    362966.00
    2469.800     18951.2258    362697.00
    2470.000     18565.8284    363147.00
    2470.200     18491.8648    364097.00
    2470.400     18511.8021    364544.00
    2470.600     18443.2619    364080.00
    2470.800     18693.0996    363538.00
    2471.001     18937.4409    364994.00
    2471.199     19008.7166    364783.00
    2471.400     19387.1684    367324.00
    2471.601     19896.0898    367264.00
    2471.801     20319.1636    367996.00
    2472.000     21110.5249    367559.00
    2472.202     21832.2813    367985.00
    2472.398     22435.4055    367453.00
    2472.599     23385.5178    371668.00
    2472.800     23129.1656    370732.00
    2473.000     22483.3576    370077.00
    2473.199     22620.5752    370209.00
    2473.400     22839.5001    370555.00
    2473.600     22952.2393    370212.00
    2473.800     22603.0190    371007.00
    2474.000     22644.7843    371330.00
    2474.200     22461.4028    372157.00
    2474.399     22679.0146    371926.00
    2474.601     22104.2196    372215.00
    2474.801     22329.8917    371532.00
    2475.000     22152.2665    372684.00
    2475.199     21985.6506    373506.00
    2475.400     21863.6648    373435.00
    2475.600     22171.1009    373797.00
    2475.800     22076.3314    373874.00
    2476.000     22403.8139    373242.00
    2476.201     23059.7714    373631.00
    2476.401     23287.1997    374218.00
    2476.599     23522.3493    374734.00
    2476.800     24032.9244    375014.00
    2477.000     24184.0452    374676.00
    2477.200     25429.7851    374144.00
    2477.400     26012.0392    374210.00
    2477.600     26539.5338    374317.00
    2477.801     27708.2531    374901.00
    2478.000     28236.6670    375535.00
    2478.200     29154.7141    374303.00
    2478.401     30635.4542    373643.00
    2478.600     32276.6580    374092.00
    2478.800     34765.7643    372816.00
    2479.000     37274.9999    373714.00
    2479.200     40999.7300    373725.00
    2479.400     46169.9345    374464.00
    2479.600     53132.9077    373271.00
    2479.800     63801.3013    371791.00
    2480.001     80720.8912    370604.00
    2480.200    107611.2399    371715.00
    2480.399    143584.0109    372367.00
    2480.599    187584.2192    372704.00
    2480.801    231665.2381    373108.00
    2481.000    269155.4263    371820.00
    2481.199    296183.0681    374727.00
    2481.399    309631.8107    367939.00
    2481.600    313961.6864    377579.00
    2481.801    307686.7118    376997.00
    2482.000    289078.9409    376603.00
    2482.201    253837.2614    376237.00
    2482.400    206831.6338    376593.00
    2482.600    159819.4202    376636.00
    2482.801    122238.6607    377177.00
    2483.000     98297.3638    375808.00
    2483.200     83902.5898    376220.00
    2483.401     76994.5917    375524.00
    2483.601     75191.6453    373307.00
    2483.801     77851.3236    371743.00
    2484.000     82679.7078    371254.00
    2484.199     89312.0886    369320.00
    2484.399     97733.2083    368333.00
    2484.600    101549.8247    365451.00
    2484.800    102872.5073    362511.00
    2485.000     98885.5587    360592.00
    2485.200     91868.2958    358782.00
    2485.400     82200.1765    355784.00
    2485.601     72420.7148    354098.00
    2485.800     64406.8040    350802.00
    2486.000     57718.8447    349113.00
    2486.201     53528.4819    347325.00
    2486.400     51249.8813    345522.00
    2486.601     49521.9517    342286.00
    2486.801     48757.9692    339178.00
    2486.998     47970.9243    336387.00
    2487.198     46759.2316    332513.00
    2487.401     45993.5849    330378.00
    2487.600     44663.1676    328432.00
    2487.801     44595.8485    325449.00
    2488.000     43850.6361    322763.00
    2488.200     44253.7698    321705.00
    2488.399     44489.2248    319377.00
    2488.601     46033.8011    315733.00
    2488.800     47901.6468    314111.00
    2489.001     49935.8912    310639.00
    2489.200     52731.5141    309842.00
    2489.400     54556.5604    306959.00
    2489.600     56823.9573    306696.00
    2489.802     58378.3872    303655.00
    2490.000     59199.4420    303425.00
    2490.200     59737.7740    300757.00
    2490.401     59680.0101    298513.00
    2490.600     60697.7643    297148.00
    2490.800     61455.0493    295824.00
    2491.000     61868.0827    294797.00
    2491.201     62819.4541    290962.00
    2491.400     64804.3383    290668.00
    2491.600     66538.5803    288127.00
    2491.800     68512.8333    285848.00
    2491.999     70370.4242    284860.00
    2492.200     71560.9247    282791.00
    2492.400     71286.6235    278602.00
    2492.600     69669.6666    275107.00
    2492.801     68379.2866    273323.00
    2493.001     66780.5584    269888.00
    2493.201     65319.2063    267992.00
    2493.399     64045.1273    264838.00
    2493.600     62902.6003    263536.00
    2493.801     61957.3647    260271.00
    2494.000     61171.2667    258886.00
    2494.199     60427.0928    256908.00
    2494.400     59259.3660    254465.00
    2494.600     57224.6955    251216.00
    2494.801     56460.8095    250989.00
    2495.000     54430.9520    248153.00
    2495.199     52624.0798    247182.00
    2495.400     50879.5645    245312.00
    2495.600     49175.4059    242857.00
    2495.799     48558.6012    240861.00
    2496.000     48208.5157    238251.00
    2496.201     49037.6489    235811.00
    2496.399     49759.0769    233989.00
    2496.600     51182.8605    232362.00
    2496.800     51965.8120    228862.00
    2497.001     53073.8402    227331.00
    2497.200     54967.0860    225942.00
    2497.401     55054.0143    222783.00
    2497.601     56609.9301    221628.00
    2497.800     56909.8384    218662.00
    2498.000     57204.3533    217375.00
    2498.201     56334.0921    215574.00
    2498.400     57300.8155    213392.00
    2498.600     56177.3979    210452.00
    2498.801     56126.0042    208571.00
    2499.001     55929.0405    206821.00
    2499.200     54323.2893    203569.00
    2499.400     53627.0438    201672.00
    2499.601     52580.8238    199706.00
    2499.800     51170.0688    197950.00
    2500.000     50435.7244    196231.00
    2501.001     92291.9047    397969.00
    2502.001     88448.4295    402657.00
    2503.001     86454.6497    407712.00
    2504.002     80299.2067    408076.00
    2505.001     74340.0732    409163.00
    2506.000     68763.8535    410342.00
    2507.000     64319.2395    410709.00
    2508.000     61321.5692    412173.00
    2509.000     60811.8053    411697.00
    2510.000     62182.9727    413071.00
    2511.001     61907.0063    413756.00
    2512.000     61411.3801    414264.00
    2513.001     61419.0595    414408.00
    2514.000     62215.8309    415790.00
    2515.001     62117.8959    413771.00
    2516.000     63753.4789    415592.00
    2516.999     64913.5605    417455.00
    2518.000     66637.0094    418314.00
    2519.000     68273.2348    422303.00
    2520.000     68649.0079    423279.00
    2520.999     69565.3638    425517.00
    2522.001     68763.4525    428548.00
    2523.000     67269.4278    428600.00
    2524.000     65366.8022    429630.00
    2525.001     64714.1906    433008.00
    2526.000     63637.2354    433223.00
    2527.000     63501.8041    433430.00
    2528.001     63521.0924    435156.00
    2529.001     63475.5843    433890.00
    2530.000     64009.5445    434635.00
    2531.001     63734.2761    432760.00
    2532.000     63395.2153    432905.00
    2533.000     62971.8672    431316.00
    2534.000     62789.7212    429695.00
    2535.001     62864.0781    428285.00
    2536.000     62635.8138    426283.00
    2537.000     62031.5182    421647.00
    2538.000     61730.4664    418938.00
    2539.000     61762.5310    416726.00
    2540.000     61830.8115    415377.00
    2541.001     62234.3620    413727.00
    2542.000     62629.3799    412956.00
    2543.000     62871.7678    411849.00
    2544.000     64604.9256    416129.00
    2545.000     64549.2075    416436.00
    2546.000     65898.1883    414759.00
    2547.000     65569.8187    410572.00
    2548.000     66568.1393    415193.00
    2549.000     67330.5905    421370.00
    2550.000     68973.3210    424146.00
