#XDI/1.1  GSE/1.0
# Column.1: energy eV
# Column.2: ifluor
# Column.3: i0
# Scan.end_time: 2013-07-29 20:50:47
# Scan.start_time: 2013-07-29 20:41:01
# Element.symbol:  S
# Element.edge:  K
# Mono.d_spacing:  3.13477
# Mono.name: Si 111
# Sample.formula: CdS
# Sample.name: cadmium sulfide
# Sample.prep: powder on halogen-free tape
# Sample.temperature: room temperature
# Facility.Name:  APS
# Beamline.Name:  13-ID-E
# Beamline.xray_source:  3.6cm undulator
# Beamline.I0: He, 200 cm
# Beamline.If: 4-element SDD (Vortex ME-4)
# ScanParameters.ScanType: xafs
# ScanParameters.E0: 2472.000
# ScanParameters.Start: Scan.Member: Value
# ScanParameters.E0: 2472.00
# ScanParameters.Legend: Start       Stop       Step       Npts       Time   Kspace?
# ScanParameters.Region1: 2450.0     2468.0     1.0000     19.000     2.0000   0
# ScanParameters.Region2: 2468.0     2500.0    0.20000     161.00     2.0000   0
# ScanParameters.Region3: 2500.0     2550.0     1.0000     51.000     2.0000   0
#-------------------------
#  energy  ifluor  i0
    2450.000     12424.1811    308598.00
    2451.000     12926.7556    311098.00
    2451.999     13009.5848    310705.00
    2453.000     12911.0249    316295.00
    2454.000     13136.6096    321531.00
    2455.000     13186.7839    324436.00
    2456.000     12980.8989    326167.00
    2457.000     13044.5749    329551.00
    2457.999     13063.5194    332353.00
    2459.000     13165.9151    335518.00
    2459.999     13220.4962    337733.00
    2461.001     13063.8883    339742.00
    2462.000     13013.2835    342187.00
    2463.000     13421.1119    343172.00
    2464.000     13309.4180    347365.00
    2465.000     13637.5621    349996.00
    2466.000     13536.4977    350943.00
    2467.001     13904.1753    353655.00
    2468.000     14889.0623    357038.00
    2468.201     15365.4994    358200.00
    2468.400     15541.1455    358658.00
    2468.600     15889.8471    359975.00
    2468.800     16693.0439    361765.00
    2469.000     17185.4452    361573.00
    2469.201     18304.7227    361891.00
    2469.400     20160.8083    362695.00
    2469.601     22486.2982    362543.00
    2469.800     25879.2359    362930.00
    2470.000     30433.0973    364163.00
    2470.200     36322.7988    366156.00
    2470.399     43829.7582    366050.00
    2470.600     53524.0109    365242.00
    2470.801     65094.6893    365482.00
    2471.000     77505.5361    367037.00
    2471.200     88902.2980    366513.00
    2471.400     98337.9712    367007.00
    2471.601    102653.4829    367311.00
    2471.800    104391.8323    366845.00
    2472.000    105001.5222    369053.00
    2472.201    103784.3623    368827.00
    2472.399    101272.8372    368222.00
    2472.601    100561.1778    372333.00
    2472.800     99031.4580    372020.00
    2473.000     98646.2924    370558.00
    2473.200     99215.8140    370322.00
    2473.400     99283.6341    370118.00
    2473.600     99313.1670    370626.00
    2473.800     95956.7177    371605.00
    2474.000     91853.3710    372457.00
    2474.201     87057.2964    372845.00
    2474.400     83229.0810    372788.00
    2474.601     81100.3832    372111.00
    2474.801     80484.3293    372759.00
    2475.001     81912.1388    373809.00
    2475.201     82435.1750    373646.00
    2475.400     81959.5931    374967.00
    2475.600     79180.4456    375510.00
    2475.800     76642.5781    375714.00
    2476.000     72741.7624    375749.00
    2476.201     69542.3713    375095.00
    2476.399     66968.5914    375915.00
    2476.601     64485.8014    376117.00
    2476.800     62062.8864    376661.00
    2477.000     60103.5909    376506.00
    2477.200     58651.8647    377057.00
    2477.400     57581.0345    376968.00
    2477.600     56670.1169    376850.00
    2477.801     56498.6792    376389.00
    2477.999     56466.7212    377500.00
    2478.200     56732.5642    377151.00
    2478.400     56845.8341    376650.00
    2478.601     56808.1976    376601.00
    2478.800     55082.8929    376228.00
    2479.000     53997.2664    376166.00
    2479.200     52258.9244    375720.00
    2479.400     52585.5479    376178.00
    2479.600     51674.9905    375369.00
    2479.801     52168.3996    375167.00
    2480.002     52945.0458    374213.00
    2480.200     56126.5780    374584.00
    2480.400     58603.6103    374751.00
    2480.600     60988.8921    374888.00
    2480.799     64540.6864    374718.00
    2481.000     68005.5841    374552.00
    2481.200     71552.7041    373880.00
    2481.400     72814.4887    365920.00
    2481.600     77001.4429    374661.00
    2481.800     78836.3463    375990.00
    2482.000     79321.8799    375600.00
    2482.200     78686.6525    373757.00
    2482.400     78848.8948    374100.00
    2482.600     77134.6623    373445.00
    2482.801     77151.6985    373364.00
    2483.000     75605.8665    371162.00
    2483.200     76066.2000    370730.00
    2483.400     74153.7113    369211.00
    2483.600     72751.2061    366007.00
    2483.800     72095.3933    365050.00
    2483.999     71019.0843    362617.00
    2484.200     69487.6497    360961.00
    2484.400     68289.3272    359723.00
    2484.601     66819.0996    355746.00
    2484.801     65819.8080    355522.00
    2485.000     64063.8143    352400.00
    2485.200     63507.2023    348624.00
    2485.401     62240.7928    347695.00
    2485.600     61003.5575    345089.00
    2485.800     59556.9332    342531.00
    2486.000     58951.5760    340428.00
    2486.200     57312.4792    337697.00
    2486.400     56158.3095    335093.00
    2486.600     55278.1123    333293.00
    2486.800     54380.4167    329546.00
    2487.000     53050.0189    326554.00
    2487.200     52709.7824    325539.00
    2487.400     51767.2096    322728.00
    2487.599     51388.8571    320483.00
    2487.800     50506.3692    316892.00
    2488.000     50420.7387    316026.00
    2488.200     49521.9944    313038.00
    2488.400     49734.6186    311591.00
    2488.599     49304.4819    308547.00
    2488.800     49680.5034    308343.00
    2489.000     49269.3591    305596.00
    2489.200     49355.9078    303916.00
    2489.400     49300.8884    301670.00
    2489.601     49246.2975    299300.00
    2489.801     49322.3200    298062.00
    2490.000     49157.6575    294898.00
    2490.200     48924.3196    292358.00
    2490.401     49393.3694    290901.00
    2490.600     49099.2512    288959.00
    2490.802     49231.9931    284838.00
    2491.000     49215.5837    283172.00
    2491.200     48786.4935    280774.00
    2491.400     48946.0995    278405.00
    2491.601     49003.2701    276372.00
    2491.801     48947.7610    274594.00
    2492.000     49002.2844    272685.00
    2492.201     48849.5386    270059.00
    2492.401     48679.7832    266169.00
    2492.600     49350.8658    265382.00
    2492.801     48808.6002    262761.00
    2493.000     48648.8628    261030.00
    2493.200     48517.9383    259099.00
    2493.401     48189.0616    257279.00
    2493.600     48629.7999    255739.00
    2493.800     48634.3348    253700.00
    2494.000     48090.6616    250505.00
    2494.201     47675.7227    248334.00
    2494.401     47669.2877    247484.00
    2494.600     47221.9218    244567.00
    2494.801     46827.7681    243051.00
    2495.000     46740.1955    240530.00
    2495.201     45967.9657    237873.00
    2495.400     45938.0476    235458.00
    2495.601     45372.7771    234420.00
    2495.801     44798.5560    232588.00
    2496.000     44875.2114    231821.00
    2496.200     43636.1116    228291.00
    2496.400     43078.6664    226558.00
    2496.600     43361.1587    225021.00
    2496.802     42960.3495    223436.00
    2497.000     42258.4177    221259.00
    2497.200     42337.4945    220077.00
    2497.400     41706.6186    218224.00
    2497.600     41038.6142    215385.00
    2497.801     41431.7974    215872.00
    2498.000     41050.9998    214368.00
    2498.200     40316.4997    213100.00
    2498.401     39920.9197    210898.00
    2498.600     39365.8269    207960.00
    2498.801     39069.4069    205971.00
    2499.001     37870.2122    203097.00
    2499.201     37423.5678    201819.00
    2499.400     37020.8108    198540.00
    2499.600     36527.8036    197405.00
    2499.800     36051.9545    193404.00
    2500.000     35672.7216    191257.00
    2501.000     74423.5024    399511.00
    2502.000     73950.5188    404674.00
    2502.999     73887.5839    406856.00
    2503.999     72022.3731    407466.00
    2505.001     71047.9201    407520.00
    2506.001     69706.2119    409832.00
    2507.001     69164.6992    410146.00
    2508.000     68893.7158    409933.00
    2509.001     68716.4044    410013.00
    2510.001     69149.7736    411168.00
    2511.001     70387.2776    411963.00
    2512.000     70302.6348    411146.00
    2513.000     70835.0016    410614.00
    2514.001     71173.5703    412021.00
    2515.001     71184.8201    411786.00
    2516.000     71816.0550    412403.00
    2517.000     71522.8397    412927.00
    2518.000     72038.4686    416217.00
    2519.001     72542.1146    418797.00
    2520.000     72684.4713    419107.00
    2521.001     72940.0709    421729.00
    2522.000     73373.6954    423568.00
    2523.000     74338.4065    428582.00
    2524.000     74234.4565    425068.00
    2525.001     74980.2936    425893.00
    2526.000     76447.0789    426740.00
    2527.000     75750.2295    424375.00
    2528.000     76306.0778    426219.00
    2529.000     76514.2110    426444.00
    2530.000     77475.1763    425464.00
    2531.000     76927.6253    423775.00
    2532.000     77281.4487    424313.00
    2532.999     76852.0172    422629.00
    2534.000     75713.1590    419830.00
    2535.000     76046.2146    418147.00
    2536.000     74898.9817    416224.00
    2537.000     74396.2674    414611.00
    2538.000     74028.6768    411382.00
    2539.002     73711.5410    410497.00
    2540.001     72945.6929    406198.00
    2541.001     72817.0968    405909.00
    2542.000     72109.1333    403906.00
    2543.000     71391.4027    401567.00
    2544.000     71515.2241    407338.00
    2545.000     70996.8682    407557.00
    2546.000     70083.7099    405839.00
    2547.000     69501.5802    404575.00
    2548.000     68763.4189    403001.00
    2549.000     70242.4502    411067.00
    2550.000     70549.9138    414736.00
