#XDI/1.1  GSE/1.0
# Column.1: energy eV
# Column.2: ifluor
# Column.3: i0
# Scan.end_time: 2013-07-29 20:30:54
# Scan.start_time: 2013-07-29 20:21:08
# Element.symbol:  S
# Element.edge:  K
# Mono.d_spacing:  3.13477
# Mono.name: Si 111
# Sample.formula: CoAsS
# Sample.name: cobaltite
# Sample.prep: powder on halogen-free tape
# Sample.temperature: room temperature
# Facility.Name:  APS
# Beamline.Name:  13-ID-E
# Beamline.xray_source:  3.6cm undulator
# Beamline.I0: He,  20 cm
# Beamline.If: 4-element SDD (Vortex ME-4)
# ScanParameters.ScanType: xafs
# ScanParameters.E0: 2472.000
# ScanParameters.Start: Scan.Member: Value
# ScanParameters.E0: 2472.00
# ScanParameters.Legend: Start       Stop       Step       Npts       Time   Kspace?
# ScanParameters.Region1: 2450.0     2468.0     1.0000     19.000     2.0000   0
# ScanParameters.Region2: 2468.0     2500.0    0.20000     161.00     2.0000   0
# ScanParameters.Region3: 2500.0     2550.0     1.0000     51.000     2.0000   0
#-------------------------
#  energy  ifluor  i0
    2450.000     26346.0152    306258.00
    2451.001     27415.3065    308904.00
    2452.001     27466.2957    311292.00
    2453.000     27434.7371    315802.00
    2453.999     27529.8867    320450.00
    2455.000     27631.3683    323412.00
    2456.000     27570.3322    325637.00
    2457.000     27629.8201    328829.00
    2458.000     27850.3411    331572.00
    2459.000     28404.9578    335717.00
    2460.000     28358.7076    335370.00
    2461.000     27938.2290    337586.00
    2462.000     27583.1364    339050.00
    2463.000     28085.6688    342811.00
    2463.999     28130.2735    345723.00
    2465.000     29083.1406    345931.00
    2466.000     30105.8040    347555.00
    2467.000     30780.8991    349730.00
    2468.000     34321.7751    353429.00
    2468.200     36294.7166    355074.00
    2468.401     38752.4220    356401.00
    2468.601     41684.1146    356918.00
    2468.800     46361.3920    358835.00
    2469.000     51939.3766    359793.00
    2469.199     61293.6530    359860.00
    2469.401     76876.4128    360446.00
    2469.599    101426.2483    361035.00
    2469.799    127686.3577    361580.00
    2470.000    147377.5181    363008.00
    2470.201    158052.5309    363826.00
    2470.400    161184.4131    364542.00
    2470.601    159096.0878    362503.00
    2470.801    157446.3121    361805.00
    2471.000    155222.7883    363686.00
    2471.200    152788.0116    365024.00
    2471.400    151583.0521    366518.00
    2471.600    149724.6237    367362.00
    2471.800    149940.1597    367165.00
    2472.000    149136.2809    366772.00
    2472.201    148609.0485    367848.00
    2472.399    144056.6823    367380.00
    2472.601    137845.6422    370465.00
    2472.801    128259.6727    370347.00
    2473.000    117805.5333    369792.00
    2473.200    109624.2308    369599.00
    2473.400    102470.5876    369576.00
    2473.601     95745.4154    369866.00
    2473.800     89577.6161    369980.00
    2474.000     83902.7408    371210.00
    2474.200     78209.8027    371213.00
    2474.399     73446.6693    371170.00
    2474.599     70573.5439    370264.00
    2474.801     69821.1011    371290.00
    2474.999     69979.1558    372249.00
    2475.200     74019.3589    372416.00
    2475.400     79384.1461    373761.00
    2475.601     87390.5739    373187.00
    2475.801     94227.2034    373065.00
    2476.000    100176.8152    373591.00
    2476.201    104650.3559    373402.00
    2476.399    108674.2783    374209.00
    2476.599    110672.4523    374379.00
    2476.800    112710.8525    375153.00
    2477.001    113036.9463    375065.00
    2477.199    115032.0257    374585.00
    2477.400    116404.3932    374237.00
    2477.600    117549.8465    374535.00
    2477.801    118921.3965    374912.00
    2478.000    119708.7468    375275.00
    2478.198    121599.1262    375634.00
    2478.402    122785.0476    375006.00
    2478.599    121562.3875    374428.00
    2478.800    121304.5229    373961.00
    2479.000    120687.1979    373689.00
    2479.200    119808.8983    372772.00
    2479.399    119040.1631    373896.00
    2479.600    116809.0452    372485.00
    2479.800    115872.1197    371183.00
    2480.000    115453.3026    370406.00
    2480.201    114805.4338    371172.00
    2480.399    115596.9343    371743.00
    2480.599    115551.2293    372672.00
    2480.800    117094.4889    372402.00
    2481.000    119216.3357    371559.00
    2481.201    120443.8382    375255.00
    2481.400    119194.5492    368729.00
    2481.601    122088.0573    377128.00
    2481.801    121481.3749    375660.00
    2482.000    121126.5454    375292.00
    2482.199    120339.4026    375234.00
    2482.400    119443.3634    375644.00
    2482.601    118476.2356    374869.00
    2482.800    118259.1795    374951.00
    2483.000    118549.3203    373953.00
    2483.200    118237.0622    374047.00
    2483.401    116866.6228    371438.00
    2483.600    116149.9847    369168.00
    2483.800    117099.7843    368995.00
    2484.001    116296.9292    366284.00
    2484.200    115228.7812    364360.00
    2484.399    115746.0844    363070.00
    2484.601    114508.1179    359817.00
    2484.801    113705.8176    358219.00
    2485.000    113422.5330    355905.00
    2485.200    112163.8593    353035.00
    2485.399    112205.2710    350129.00
    2485.601    110568.5339    348320.00
    2485.801    109706.6774    344249.00
    2486.000    109143.3248    343098.00
    2486.200    107551.7983    340284.00
    2486.402    106387.2356    336188.00
    2486.599    104593.2886    335069.00
    2486.800    104608.0326    333177.00
    2487.000    103800.2402    331083.00
    2487.200    102398.7392    327745.00
    2487.399    101911.9725    326759.00
    2487.600    100549.2905    325058.00
    2487.800     99596.6727    320807.00
    2487.999     98706.7991    318403.00
    2488.200     98188.5156    318870.00
    2488.400     96491.7884    315377.00
    2488.600     97292.9454    313234.00
    2488.799     95644.0638    311357.00
    2489.000     94679.5827    308430.00
    2489.201     94485.6649    308916.00
    2489.400     95012.0813    307407.00
    2489.600     93241.4580    304667.00
    2489.801     92545.6939    301467.00
    2490.000     91216.2201    299786.00
    2490.201     90778.0719    296883.00
    2490.401     89387.4218    295180.00
    2490.601     89137.1498    292898.00
    2490.801     88164.6344    290848.00
    2491.000     87518.3328    288989.00
    2491.201     86774.6808    287562.00
    2491.400     86666.5934    286482.00
    2491.601     85886.8887    283576.00
    2491.800     84423.6017    280849.00
    2492.001     84615.5701    279048.00
    2492.200     82701.6181    276981.00
    2492.401     81798.6747    274461.00
    2492.600     81193.1465    271188.00
    2492.800     81022.4582    271957.00
    2493.000     79271.2592    267485.00
    2493.200     78722.5050    266729.00
    2493.400     77422.8054    263121.00
    2493.601     77183.2791    263429.00
    2493.801     76425.0420    260044.00
    2494.000     75799.3268    257681.00
    2494.198     75071.3727    256571.00
    2494.400     73597.3130    253455.00
    2494.600     73188.2776    250593.00
    2494.799     72448.7386    248944.00
    2495.001     72494.4477    247369.00
    2495.201     71653.0182    245456.00
    2495.400     70045.9604    241517.00
    2495.601     69441.4711    239771.00
    2495.801     69132.3929    238205.00
    2496.000     68692.6039    236744.00
    2496.200     67995.8790    232997.00
    2496.400     67279.6677    231572.00
    2496.602     66939.4404    230566.00
    2496.800     65522.1392    227304.00
    2497.001     66064.0692    226243.00
    2497.200     65285.2817    223147.00
    2497.400     65461.3193    222079.00
    2497.600     64275.5895    220168.00
    2497.800     63827.7695    217667.00
    2498.000     63148.3495    214950.00
    2498.200     62386.4001    212836.00
    2498.401     62404.4894    211132.00
    2498.600     60944.8150    207990.00
    2498.801     60736.5580    206113.00
    2499.001     59913.3408    203598.00
    2499.200     59034.8992    201122.00
    2499.401     58705.7758    198412.00
    2499.600     58100.0703    197036.00
    2499.800     57404.3568    193373.00
    2500.000     57381.9703    191878.00
    2501.000    117439.0497    398777.00
    2501.998    119801.0112    403904.00
    2502.999    120554.7418    406322.00
    2504.000    122035.3499    408462.00
    2505.000    123392.4088    409152.00
    2506.001    123923.2294    411767.00
    2507.002    123436.4235    411922.00
    2508.000    124996.7125    411502.00
    2509.000    126077.7659    412182.00
    2509.999    126235.0656    412569.00
    2511.000    127417.6942    410629.00
    2512.000    128178.7696    413803.00
    2513.000    128737.6659    413743.00
    2514.000    129553.1243    414925.00
    2515.000    130725.5515    414841.00
    2515.999    129792.9348    415549.00
    2517.000    130222.0184    417408.00
    2518.000    130459.1311    420229.00
    2519.000    130273.9792    417017.00
    2520.001    129242.4045    420185.00
    2521.001    129962.7716    425746.00
    2522.001    129626.8205    428496.00
    2523.001    128950.1046    430403.00
    2524.000    127672.4364    430991.00
    2525.001    126865.7892    432912.00
    2526.000    126698.3626    434233.00
    2527.000    126445.3532    433354.00
    2528.001    126137.8523    433243.00
    2529.000    126259.3844    434322.00
    2530.001    126786.1709    433570.00
    2531.000    125161.2632    431405.00
    2532.001    124791.4506    430648.00
    2533.001    124122.0683    427902.00
    2534.000    122974.2581    424601.00
    2535.000    123386.5811    421561.00
    2536.001    123060.3842    420454.00
    2537.000    123022.6258    419774.00
    2538.001    121963.6785    413555.00
    2539.000    121409.4767    412430.00
    2540.000    122261.4857    411992.00
    2541.000    121003.9621    409157.00
    2542.000    120722.9288    407334.00
    2543.000    122771.8312    412102.00
    2544.000    123623.9071    411255.00
    2545.000    123157.4506    409636.00
    2546.000    123463.2897    407556.00
    2547.001    125709.4365    412455.00
    2548.000    126529.2177    411993.00
    2549.000    128947.5696    417829.00
    2550.000    131975.4983    425656.00
