#XDI/1.1  GSE/1.0
# Column.1: energy eV
# Column.2: ifluor
# Column.3: i0
# Scan.end_time: 2013-07-29 20:01:06
# Scan.start_time: 2013-07-29 19:51:17
# Element.symbol:  S
# Element.edge:  K
# Mono.d_spacing:  3.13477
# Mono.name: Si 111
# Sample.formula: CoSO4.7H2O
# Sample.name: cobalt sulfate
# Sample.prep: powder on halogen-free tape
# Sample.temperature: room temperature
# Facility.Name:  APS
# Beamline.Name:  13-ID-E
# Beamline.xray_source:  3.6cm undulator
# Beamline.I0: He,  20 cm
# Beamline.If: 4-element SDD (Vortex ME-4)
# ScanParameters.ScanType: xafs
# ScanParameters.E0: 2472.000
# ScanParameters.Start: Scan.Member: Value
# ScanParameters.E0: 2472.00
# ScanParameters.Legend: Start       Stop       Step       Npts       Time   Kspace?
# ScanParameters.Region1: 2450.0     2468.0     1.0000     19.000     2.0000   0
# ScanParameters.Region2: 2468.0     2500.0    0.20000     161.00     2.0000   0
# ScanParameters.Region3: 2500.0     2550.0     1.0000     51.000     2.0000   0
#-------------------------
#  energy  ifluor  i0
    2450.000     37697.3871    314032.00
    2451.000     37881.9656    318638.00
    2451.999     37925.8864    320253.00
    2453.000     36923.1785    325421.00
    2454.001     36772.4732    329686.00
    2455.000     36619.0124    331787.00
    2456.000     36041.0477    333017.00
    2457.001     36057.0118    335589.00
    2458.000     35684.6783    337758.00
    2459.000     35319.5665    340235.00
    2460.000     35547.5627    340962.00
    2461.000     34807.9970    342592.00
    2462.001     34793.3449    344012.00
    2463.000     34262.5465    345833.00
    2464.000     33887.4545    348702.00
    2464.999     33640.8301    350231.00
    2466.000     34015.8067    351525.00
    2467.000     33395.9783    354488.00
    2468.000     33258.9244    357699.00
    2468.201     33248.7547    358678.00
    2468.400     33401.3375    359643.00
    2468.600     32732.3101    361088.00
    2468.800     32382.2282    361793.00
    2469.001     32755.8210    363617.00
    2469.201     32390.5070    363392.00
    2469.401     32944.2634    363366.00
    2469.601     32196.6184    363861.00
    2469.800     32413.5475    363955.00
    2470.000     31900.6010    364828.00
    2470.199     32205.0761    365276.00
    2470.400     32030.2328    365260.00
    2470.600     31918.7409    365552.00
    2470.801     32039.0903    365319.00
    2471.000     32441.7151    367110.00
    2471.201     32603.9855    367569.00
    2471.400     32366.1969    368071.00
    2471.600     32658.7971    367617.00
    2471.801     32905.4457    367290.00
    2472.001     33422.3414    366779.00
    2472.200     34021.3722    366854.00
    2472.401     33749.5563    366520.00
    2472.601     35674.7211    370037.00
    2472.801     34783.4901    369015.00
    2473.000     34708.5347    368598.00
    2473.200     34592.7199    368831.00
    2473.400     34322.7540    369230.00
    2473.600     34303.5960    369760.00
    2473.801     34578.2956    370322.00
    2474.000     34357.7787    371508.00
    2474.200     34417.1946    371789.00
    2474.401     34088.8024    371808.00
    2474.601     34218.4232    371374.00
    2474.800     34038.8497    371717.00
    2475.000     34384.8001    372020.00
    2475.200     34613.7740    372551.00
    2475.400     34528.2961    373558.00
    2475.600     34795.9896    372746.00
    2475.800     34966.7592    373128.00
    2476.001     35280.1805    372800.00
    2476.200     35886.3519    372875.00
    2476.401     36514.1558    372668.00
    2476.601     37295.2760    373178.00
    2476.801     37813.5072    373287.00
    2477.000     38734.6423    373025.00
    2477.200     39046.0707    372420.00
    2477.400     39748.3615    372593.00
    2477.602     41609.7613    372151.00
    2477.800     42789.9220    372352.00
    2478.001     43733.6634    372804.00
    2478.199     45435.7767    372831.00
    2478.399     47791.1663    372295.00
    2478.601     50798.9073    372413.00
    2478.801     54056.8651    372080.00
    2479.001     58801.0093    371444.00
    2479.199     64819.4252    372568.00
    2479.400     73470.3002    371997.00
    2479.601     86154.4876    371369.00
    2479.801    104204.4474    369894.00
    2480.000    127391.6475    370046.00
    2480.200    151390.2935    371479.00
    2480.401    174825.4641    372176.00
    2480.601    203548.3819    372635.00
    2480.800    235750.6157    372975.00
    2481.000    259042.5302    372676.00
    2481.198    269953.9407    372714.00
    2481.400    268802.4436    366484.00
    2481.599    267865.1999    374535.00
    2481.801    258288.9923    373490.00
    2482.000    245206.1962    374251.00
    2482.200    225042.0745    374796.00
    2482.400    201450.9379    373479.00
    2482.600    179447.6258    373278.00
    2482.800    157858.1844    373292.00
    2483.000    140697.3976    371894.00
    2483.200    125588.7326    372569.00
    2483.400    112568.4345    370642.00
    2483.601    102655.9479    369414.00
    2483.800     95279.0054    367539.00
    2484.000     90705.1797    367383.00
    2484.200     87818.5665    365842.00
    2484.399     85683.6255    363964.00
    2484.600     84787.7308    363652.00
    2484.800     84084.0712    362276.00
    2485.001     83568.5487    359999.00
    2485.201     83214.3779    357394.00
    2485.401     83081.3197    354742.00
    2485.600     83736.7138    352862.00
    2485.801     83630.9814    348615.00
    2485.999     84272.5918    347087.00
    2486.200     83519.5887    344205.00
    2486.399     83725.2702    341397.00
    2486.602     82997.2638    337243.00
    2486.800     82629.7628    333844.00
    2487.001     81381.6031    331853.00
    2487.201     81051.4178    328763.00
    2487.399     79533.2976    325938.00
    2487.601     79750.7299    325393.00
    2487.800     78603.5585    322244.00
    2488.000     78958.6429    320066.00
    2488.200     78240.5055    317939.00
    2488.401     78001.1754    315784.00
    2488.600     77606.9429    314154.00
    2488.800     77019.2262    311906.00
    2489.001     77482.8337    310260.00
    2489.200     77241.1233    308268.00
    2489.401     77732.6782    307776.00
    2489.600     76673.7070    303863.00
    2489.801     76361.3702    300910.00
    2490.002     77093.3538    302511.00
    2490.201     75976.8352    298511.00
    2490.400     75340.4136    297248.00
    2490.600     74426.2518    295280.00
    2490.801     73221.7397    291564.00
    2491.000     73425.9212    291199.00
    2491.200     72205.2001    288104.00
    2491.401     71726.3733    284839.00
    2491.601     71311.3482    282879.00
    2491.801     71347.1983    280906.00
    2492.000     70599.4799    278998.00
    2492.200     71449.0265    276754.00
    2492.399     71699.3675    274144.00
    2492.601     72169.0170    270864.00
    2492.800     72142.0938    269042.00
    2493.000     73361.6346    267557.00
    2493.200     74120.4180    264977.00
    2493.399     74382.8500    262142.00
    2493.601     75821.0768    260808.00
    2493.800     76364.1685    257679.00
    2494.000     77030.8354    256143.00
    2494.200     77503.7488    253899.00
    2494.400     78294.3280    251570.00
    2494.600     78014.6183    250536.00
    2494.800     79379.5545    249383.00
    2495.001     79805.0892    247779.00
    2495.200     79471.4578    245112.00
    2495.401     79075.6665    242747.00
    2495.600     79269.0837    240715.00
    2495.801     80209.5153    239582.00
    2496.000     79159.8784    237121.00
    2496.200     78879.3702    235424.00
    2496.400     78310.7194    234119.00
    2496.600     77674.2214    230648.00
    2496.800     77029.1341    228326.00
    2497.000     75803.9520    226484.00
    2497.200     75511.5752    224314.00
    2497.400     73648.3454    221442.00
    2497.600     73080.9933    220806.00
    2497.801     71376.8937    217642.00
    2498.001     69517.9364    215011.00
    2498.200     68021.7061    213275.00
    2498.401     66383.8350    210634.00
    2498.600     65064.1197    208723.00
    2498.800     63076.1290    206247.00
    2499.001     62181.0119    204728.00
    2499.200     60414.9664    203228.00
    2499.401     58704.2706    200968.00
    2499.601     56862.5934    199147.00
    2499.800     56117.0234    198549.00
    2500.000     54761.7553    197307.00
    2501.000    111211.4442    395958.00
    2502.000    107520.6689    402238.00
    2502.999    103156.3163    404596.00
    2504.001     98778.0558    405943.00
    2505.001     95485.2393    406710.00
    2506.001     93095.4148    408989.00
    2507.001     90748.1935    409416.00
    2508.000     89186.4689    409766.00
    2509.000     87540.8429    411386.00
    2510.001     87579.3587    411543.00
    2511.000     87384.7517    412248.00
    2512.000     87552.2098    411521.00
    2513.000     87861.7286    412191.00
    2514.000     88746.1193    414239.00
    2515.000     89937.6157    414466.00
    2516.000     90346.7278    414378.00
    2516.997     90566.4613    417272.00
    2518.000     89559.3995    416700.00
    2519.001     89335.9783    419269.00
    2520.000     89404.3617    422263.00
    2521.001     89159.1144    426037.00
    2522.001     88785.7263    427710.00
    2523.000     88496.6650    429648.00
    2524.000     87629.4365    429228.00
    2525.001     88073.1255    431931.00
    2526.000     87997.0973    430863.00
    2527.002     87612.1740    431583.00
    2528.000     87937.9880    433443.00
    2529.001     88169.5584    433942.00
    2529.999     88147.1769    432561.00
    2531.000     87695.6374    431615.00
    2532.001     86653.0121    428793.00
    2533.001     87417.7391    429548.00
    2534.000     87295.5413    427547.00
    2535.001     87459.5263    425183.00
    2536.000     86571.5292    423812.00
    2537.000     86216.5857    420049.00
    2538.000     85866.0134    417075.00
    2539.000     86059.5011    419027.00
    2540.000     85329.2125    415047.00
    2541.001     86420.0164    414145.00
    2542.000     85948.5174    411261.00
    2543.000     85741.6513    411840.00
    2544.000     87019.4089    413616.00
    2545.001     87773.1001    414891.00
    2546.000     87914.2667    413909.00
    2547.000     88956.4744    416567.00
    2548.000     89659.7273    416193.00
    2549.000     91234.0281    420485.00
    2550.000     92792.7474    423880.00
