#XDI/1.1  GSE/1.0
# Column.1: energy eV
# Column.2: ifluor
# Column.3: i0
# Scan.end_time: 2014-03-09 10:48:03
# Scan.start_time: 2014-03-09 10:35:45
# Element.symbol:  S
# Element.edge:  K
# Mono.d_spacing:  3.13477
# Mono.name: Si 111
# Sample.formula: Fe2(S04)3 . H2O
# Sample.name: ferric sulfate
# Sample.prep: powder on halogen-free tape
# Sample.temperature: room temperature
# Facility.Name:  APS
# Beamline.Name:  13-ID-E
# Beamline.xray_source:  3.6cm undulator
# Beamline.I0: He, 200 cm
# Beamline.If: 4-element SDD (Vortex ME-4)
# ScanParameters.ScanType: xafs
# ScanParameters.E0: 2472.000
# ScanParameters.Start: Scan.Member: Value
# ScanParameters.E0: 2472.00
# ScanParameters.Legend: Start       Stop       Step       Npts       Time   Kspace?
# ScanParameters.Region1: -22.000    -8.0000     2.0000     8.0000     2.0000   0
# ScanParameters.Region2: -8.0000     16.000    0.15000     161.00     2.0000   0
# ScanParameters.Region3: 2.0493     7.2453   0.049962     105.00     2.0000   1
#-------------------------
#  energy  ifluor  i0
    2450.001      1126.1931    110493.00
    2452.000      1399.2232    114218.00
    2454.000      1300.0633    112036.00
    2456.000      1301.2602    112811.00
    2458.000      1362.3920    113083.00
    2460.000      1443.8830    113360.00
    2462.000      1439.2450    113922.00
    2464.000      1538.7970    114015.00
    2464.150      1567.1633    113620.00
    2464.300      1600.2683    113632.00
    2464.450      1651.7451    113437.00
    2464.600      1589.5485    113474.00
    2464.750      1607.8833    113659.00
    2464.900      1553.6353    113369.00
    2465.050      1563.8258    113324.00
    2465.201      1534.5582    113067.00
    2465.351      1647.5610    113194.00
    2465.500      1636.2712    113259.00
    2465.650      1664.2947    113334.00
    2465.800      1648.8400    113288.00
    2465.951      1634.3195    112813.00
    2466.101      1732.9040    113224.00
    2466.250      1647.5411    113046.00
    2466.400      1745.4494    112521.00
    2466.550      1740.3928    113569.00
    2466.700      1755.3847    113801.00
    2466.851      1712.5659    113421.00
    2467.000      1737.9691    113430.00
    2467.150      1735.7760    113935.00
    2467.300      1695.4449    114039.00
    2467.450      1767.2035    113837.00
    2467.600      1769.1576    113817.00
    2467.750      1766.3350    113961.00
    2467.900      1806.5376    114008.00
    2468.051      1827.1542    113866.00
    2468.201      1754.8646    114006.00
    2468.350      1819.5420    114149.00
    2468.500      1810.9357    114456.00
    2468.650      1872.2142    114050.00
    2468.801      1949.3156    114377.00
    2468.950      1895.8567    114410.00
    2469.101      1864.9277    114852.00
    2469.250      1928.1265    115069.00
    2469.400      1987.4700    115044.00
    2469.551      1919.3137    114904.00
    2469.701      2012.9745    114983.00
    2469.850      2030.2569    115001.00
    2470.000      1990.9572    115303.00
    2470.151      2088.0699    116096.00
    2470.300      2091.6990    116555.00
    2470.451      2051.3670    116288.00
    2470.600      2049.0268    116809.00
    2470.750      2054.8431    116703.00
    2470.900      2029.1365    116678.00
    2471.050      2110.8989    116823.00
    2471.201      2058.7166    117252.00
    2471.351      2186.8655    117735.00
    2471.500      2137.5141    117715.00
    2471.650      2115.3525    118027.00
    2471.800      2187.3862    117960.00
    2471.950      2247.7545    118276.00
    2472.101      2245.2725    118044.00
    2472.250      2330.4511    118033.00
    2472.400      2192.0793    118365.00
    2472.550      2389.9708    117973.00
    2472.700      2450.4058    118379.00
    2472.850      2495.5658    118550.00
    2473.000      2508.5101    118643.00
    2473.150      2578.3215    118759.00
    2473.300      2719.1820    118306.00
    2473.450      2724.6877    118521.00
    2473.600      2796.9968    118707.00
    2473.750      2809.2946    118690.00
    2473.900      2744.8256    118498.00
    2474.050      2810.6085    118607.00
    2474.200      2736.5292    119271.00
    2474.350      2798.3575    118915.00
    2474.500      2827.9651    119584.00
    2474.650      2963.0139    119861.00
    2474.800      3043.6060    120030.00
    2474.950      3135.3907    120380.00
    2475.100      3321.3426    120435.00
    2475.250      3312.1301    121077.00
    2475.401      3341.3880    120325.00
    2475.551      3599.1287    120926.00
    2475.701      3647.6352    121263.00
    2475.851      3855.2739    121390.00
    2476.000      3887.0029    121199.00
    2476.149      3932.1385    120248.00
    2476.300      4231.3922    122029.00
    2476.450      5331.6260    122102.00
    2476.600      5981.5610    122203.00
    2476.750      6673.8672    122297.00
    2476.900      7618.0985    122579.00
    2477.051      8650.0481    122882.00
    2477.200      9324.0394    106096.00
    2477.351     12046.2822    123534.00
    2477.500     14293.3351    123815.00
    2477.650     16441.1092    124967.00
    2477.800     17832.2176    124225.00
    2477.951     19402.8546    124258.00
    2478.100     20727.0310    124491.00
    2478.250     22567.4172    124638.00
    2478.400     24275.7659    124526.00
    2478.551     26175.7162    123971.00
    2478.700     27745.1929    125489.00
    2478.851     30042.3867    125377.00
    2479.000     31445.9437    125654.00
    2479.150     32517.3490    125975.00
    2479.301     32120.6902    125514.00
    2479.450     32605.3024    125301.00
    2479.601     32153.4772    125270.00
    2479.751     31071.3636    125658.00
    2479.900     31482.3557    125684.00
    2480.051     34104.2622    125903.00
    2480.200     37640.8540    125980.00
    2480.350     42458.7749    126249.00
    2480.500     51151.3501    126438.00
    2480.650     58820.9869    126209.00
    2480.800     68771.8259    126401.00
    2480.950     79291.6881    126561.00
    2481.101     89656.0986    126705.00
    2481.250     98931.9053    126577.00
    2481.400    108395.4985    126606.00
    2481.550    115556.7992    126751.00
    2481.700    121351.8216    126733.00
    2481.851    128461.0783    126725.00
    2482.000    132504.3708    126935.00
    2482.150    134711.6131    127041.00
    2482.300    140014.5144    126686.00
    2482.450    137085.2011    126637.00
    2482.600    135594.5115    126495.00
    2482.750    133581.0453    126658.00
    2482.901    130845.8292    127198.00
    2483.050    125802.8093    127535.00
    2483.200    117270.2738    126485.00
    2483.351    109821.0852    126725.00
    2483.500    101028.9422    127016.00
    2483.650     90444.5624    126899.00
    2483.801     80690.0276    127001.00
    2483.950     70147.1896    126918.00
    2484.101     63181.6118    127360.00
    2484.250     57220.9608    127526.00
    2484.401     50828.7020    128027.00
    2484.550     47933.6563    128557.00
    2484.700     43778.3505    128014.00
    2484.851     41584.2808    128363.00
    2485.000     39976.9855    128248.00
    2485.150     39184.4578    128368.00
    2485.300     39190.3860    128757.00
    2485.450     37676.6931    128758.00
    2485.600     36995.9771    128519.00
    2485.750     37590.1485    129023.00
    2485.900     36576.0601    128488.00
    2486.049     36500.2511    128819.00
    2486.200     35820.7322    129051.00
    2486.351     35571.1026    128986.00
    2486.500     35586.5889    128658.00
    2486.650     35512.3374    128822.00
    2486.800     35326.6220    128728.00
    2486.950     35814.2260    128602.00
    2487.100     35646.5427    128504.00
    2487.250     35250.0691    128893.00
    2487.401     35983.8394    128498.00
    2487.550     36456.5067    129289.00
    2487.700     37659.8901    129175.00
    2487.849     37252.4227    129578.00
    2488.000     37795.4737    129236.00
    2488.790     39792.8757    129052.00
    2489.598     44412.0593    130329.00
    2490.427     48748.4933    129956.00
    2491.274     50780.3845    130710.00
    2492.139     54562.8221    131410.00
    2493.024     54097.8718    131897.00
    2493.927     55866.4149    132308.00
    2494.851     60217.5849    134100.00
    2495.792     61884.7407    134814.00
    2496.752     66932.1531    136240.00
    2497.733     70870.1220    135048.00
    2498.731     72685.1217    135664.00
    2499.750     74139.1164    135943.00
    2500.786     72984.2132    136849.00
    2501.843     71508.4756    137453.00
    2502.918     67857.2242    138043.00
    2504.012     65007.3783    138754.00
    2505.125     62283.2165    139598.00
    2506.257     60157.0459    141059.00
    2507.408     58862.2108    141902.00
    2508.578     58047.9417    142969.00
    2509.767     57763.4829    143389.00
    2510.975     58934.6410    144018.00
    2512.202     59871.9937    145019.00
    2513.448     62786.1490    145668.00
    2514.714     64752.3018    146045.00
    2515.998     65364.4149    146746.00
    2517.301     65888.4891    147018.00
    2518.624     66735.5238    145847.00
    2519.965     69265.8290    145885.00
    2521.325     72126.8248    146644.00
    2522.704     74225.3808    146279.00
    2524.103     75320.7792    146312.00
    2525.520     76409.8783    146180.00
    2526.957     77261.0920    145471.00
    2528.412     77845.2525    145796.00
    2529.886     79038.9673    146369.00
    2531.380     80611.0820    146783.00
    2532.892     81553.6523    147579.00
    2534.424     83517.2532    148319.00
    2535.974     84714.7791    148994.00
    2537.544     85318.6326    149569.00
    2539.132     86594.4313    150024.00
    2540.740     87146.0303    150396.00
    2542.367     88633.6715    150841.00
    2544.013     87086.3308    148476.00
    2545.677     91538.0374    151341.00
    2547.360     93776.7085    152386.00
    2549.063     95621.2821    151386.00
    2550.785     97894.7877    150379.00
    2552.526     98980.0640    149849.00
    2554.285    100806.3726    149171.00
    2556.064    102847.1467    148532.00
    2557.862    105241.5572    148493.00
    2559.679    105380.6955    148028.00
    2561.515    106850.6465    147258.00
    2563.370    109269.2308    146559.00
    2565.243    109156.6527    146016.00
    2567.136    110767.1863    144240.00
    2569.048    109857.6916    141746.00
    2570.979    109407.7618    139146.00
    2572.929    109092.3662    135941.00
    2574.898    110760.9526    137611.00
    2576.886    110875.6179    135982.00
    2578.893    110687.1752    135882.00
    2580.920    110634.7658    135891.00
    2582.964    111601.6687    136438.00
    2585.028    111288.9289    135626.00
    2587.112    109341.5978    134740.00
    2589.214    108939.1679    133547.00
    2591.334    104879.4258    131879.00
    2593.474    105341.6293    130717.00
    2595.634    103651.7405    129080.00
    2597.813    100889.8951    125881.00
    2600.009     94213.1110    116483.00
    2602.225     93175.9294    116112.00
    2604.461     97557.7539    122760.00
    2606.715     94080.4743    118927.00
    2608.989     96217.4389    121399.00
    2611.281     95658.6296    122356.00
    2613.592     91075.9913    117291.00
    2615.922     91820.3608    117431.00
    2618.272     89818.2631    114893.00
    2620.641     88448.0832    113636.00
    2623.028     85676.9977    110643.00
    2625.434     84887.9399    109340.00
    2627.860     81638.0562    104671.00
    2630.304     73477.2642     95442.00
    2632.767     66045.7284     85618.00
    2635.250     66547.3235     87166.00
    2637.751     63067.8689     83560.00
    2640.271     59803.3470     79240.00
    2642.813     56202.3591     74065.00
    2645.370     50158.2120     67031.00
    2647.948     45776.6430     60378.00
    2650.545     40044.0688     53714.00
    2653.160     35945.6738     48095.00
    2655.795     30038.9965     39978.00
    2658.448     24792.9805     33344.00
    2661.122     20125.5603     26720.00
    2663.813     16373.4217     21358.00
    2666.524     12560.6398     16442.00
    2669.253     10445.2747     13449.00
    2672.003      9668.1326     12600.00
