#XDI/1.1  GSE/1.0
# Column.1: energy eV
# Column.2: ifluor
# Column.3: i0
# Scan.end_time: 2013-07-29 19:50:58
# Scan.start_time: 2013-07-29 19:41:13
# Element.symbol:  S
# Element.edge:  K
# Mono.d_spacing:  3.13477
# Mono.name: Si 111
# Sample.formula: FeSO4.7H2O
# Sample.name: ferrous sulfate
# Sample.prep: powder on halogen-free tape
# Sample.temperature: room temperature
# Facility.Name:  APS
# Beamline.Name:  13-ID-E
# Beamline.xray_source:  3.6cm undulator
# Beamline.I0: He,  20 cm
# Beamline.If: 4-element SDD (Vortex ME-4)
# ScanParameters.ScanType: xafs
# ScanParameters.E0: 2472.000
# ScanParameters.Start: Scan.Member: Value
# ScanParameters.E0: 2472.00
# ScanParameters.Legend: Start       Stop       Step       Npts       Time   Kspace?
# ScanParameters.Region1: 2450.0     2468.0     1.0000     19.000     2.0000   0
# ScanParameters.Region2: 2468.0     2500.0    0.20000     161.00     2.0000   0
# ScanParameters.Region3: 2500.0     2550.0     1.0000     51.000     2.0000   0
#-------------------------
#  energy  ifluor  i0
    2450.000     24716.1101    303051.00
    2451.000     25424.4276    307359.00
    2452.000     25714.5426    307785.00
    2453.000     25569.8502    313985.00
    2454.001     26189.2186    317172.00
    2455.001     26294.0694    318806.00
    2456.000     26371.1768    321210.00
    2457.000     26430.6697    323853.00
    2458.000     26099.3491    327098.00
    2459.000     26204.6729    330250.00
    2460.000     26231.5228    332080.00
    2461.000     26225.7874    335036.00
    2462.001     26078.3670    337417.00
    2463.000     26147.6669    339557.00
    2463.999     26256.1211    342963.00
    2465.000     27081.8121    344513.00
    2466.000     26339.4347    345999.00
    2467.001     26296.1769    349298.00
    2468.000     26867.0852    349961.00
    2468.200     26726.2845    352767.00
    2468.401     27103.1233    353821.00
    2468.600     26762.7333    355201.00
    2468.800     26690.3259    355966.00
    2469.000     27059.8318    356094.00
    2469.200     26838.6642    354958.00
    2469.400     26485.0556    355330.00
    2469.600     26641.2692    354199.00
    2469.799     27037.5077    355598.00
    2470.001     27462.1960    356511.00
    2470.200     26944.5350    359219.00
    2470.400     27278.4567    358202.00
    2470.600     27500.8968    359157.00
    2470.801     27246.8990    358631.00
    2471.000     28467.9689    363076.00
    2471.200     28691.6697    362553.00
    2471.400     29529.4999    363904.00
    2471.601     30078.5505    364847.00
    2471.800     30881.1119    365168.00
    2472.000     32498.1839    364596.00
    2472.200     33097.5902    365159.00
    2472.400     33772.4403    364944.00
    2472.600     35058.4697    368536.00
    2472.800     34813.0176    368532.00
    2473.000     34948.3909    368414.00
    2473.200     35028.1773    368178.00
    2473.399     34906.9958    367936.00
    2473.601     34813.6663    369281.00
    2473.801     34692.5394    369204.00
    2474.000     34783.3984    369796.00
    2474.201     35623.9697    370078.00
    2474.399     35855.3460    370312.00
    2474.601     37008.6533    369646.00
    2474.801     38615.4818    369257.00
    2475.000     40311.1834    369365.00
    2475.201     42372.7232    370116.00
    2475.400     43731.8796    371162.00
    2475.601     46191.0504    370790.00
    2475.801     48818.1016    371310.00
    2476.000     53139.2574    370811.00
    2476.201     60120.6348    371656.00
    2476.400     66565.4758    371564.00
    2476.600     76202.1443    373135.00
    2476.800     87373.5935    373058.00
    2477.000     99487.9235    372659.00
    2477.200    110148.8033    372633.00
    2477.401    116001.9748    373442.00
    2477.600    117753.2847    372914.00
    2477.801    115046.4272    373596.00
    2478.000    109410.0507    374573.00
    2478.200    102521.2992    374049.00
    2478.401     97630.3681    372907.00
    2478.601     96881.4630    372776.00
    2478.800     97659.7431    372570.00
    2479.000     99119.8969    371742.00
    2479.199    103696.7477    372439.00
    2479.401    110506.3181    372361.00
    2479.600    119874.8412    371513.00
    2479.801    137832.5988    370691.00
    2480.000    161655.5573    369631.00
    2480.200    195042.5847    371000.00
    2480.401    229566.6494    370771.00
    2480.601    269604.4383    370843.00
    2480.798    314601.3329    373617.00
    2481.000    361894.8467    373612.00
    2481.200    407572.2156    373645.00
    2481.400    441306.5540    367182.00
    2481.601    455263.4218    375948.00
    2481.800    460456.8660    375247.00
    2482.000    448777.7783    375333.00
    2482.200    423169.4560    375934.00
    2482.400    385989.8872    375372.00
    2482.600    341075.5686    375498.00
    2482.800    292160.2673    375286.00
    2483.001    247787.6621    374059.00
    2483.200    210653.9336    374624.00
    2483.400    180123.0272    374100.00
    2483.601    157534.4820    372783.00
    2483.800    139493.5088    371045.00
    2483.999    128716.1698    370964.00
    2484.200    119851.9290    369921.00
    2484.400    115145.9054    368115.00
    2484.600    110168.6855    366825.00
    2484.801    108645.4082    365170.00
    2485.000    107581.1448    364941.00
    2485.200    105065.0164    362289.00
    2485.401    105034.2201    359691.00
    2485.600    104478.3039    357900.00
    2485.801    103411.8381    356398.00
    2486.000    103555.4723    353601.00
    2486.200    103180.7856    351777.00
    2486.401    102728.8576    349210.00
    2486.599    102964.9849    346124.00
    2486.801    102977.6774    343202.00
    2487.000    103917.3174    342288.00
    2487.200    103676.9292    338020.00
    2487.400    103972.4067    335199.00
    2487.601    104939.4712    333293.00
    2487.800    104972.5448    328735.00
    2488.000    106250.9724    326490.00
    2488.200    106083.4681    324101.00
    2488.400    106279.9932    321910.00
    2488.601    107321.8496    319592.00
    2488.800    107836.7566    316461.00
    2489.000    107214.2761    313267.00
    2489.200    108166.3358    310640.00
    2489.400    108586.1985    308554.00
    2489.600    108342.8192    305570.00
    2489.800    108109.0454    303537.00
    2490.000    107923.3685    300332.00
    2490.200    109035.7941    297799.00
    2490.400    109556.9661    297324.00
    2490.600    109679.4281    295768.00
    2490.800    110836.1445    294885.00
    2491.000    111037.3723    292151.00
    2491.198    111077.4685    289650.00
    2491.402    111313.0697    288094.00
    2491.600    112028.3222    287368.00
    2491.801    111947.4094    283778.00
    2492.000    110422.3028    280193.00
    2492.201    111842.0237    279758.00
    2492.400    111749.6825    276097.00
    2492.601    111047.5344    273527.00
    2492.801    112147.5969    271461.00
    2493.001    112153.4510    268592.00
    2493.201    111994.6501    266138.00
    2493.401    112413.0833    264356.00
    2493.600    113243.1380    263233.00
    2493.800    113095.7687    259610.00
    2494.000    113928.0176    258201.00
    2494.200    113634.3738    255833.00
    2494.400    114758.7662    255262.00
    2494.600    113306.7522    251760.00
    2494.800    113778.0405    250011.00
    2495.000    114234.5753    248542.00
    2495.200    113643.5913    245588.00
    2495.400    112908.8096    244042.00
    2495.601    111732.4859    240419.00
    2495.800    112329.9923    238705.00
    2495.999    112324.0462    237073.00
    2496.199    110970.7948    233838.00
    2496.400    109942.6236    230386.00
    2496.600    110159.5158    229724.00
    2496.800    109153.0581    227776.00
    2497.000    109579.8820    227107.00
    2497.200    109007.8949    225194.00
    2497.400    108430.6802    224631.00
    2497.601    109302.9232    223767.00
    2497.801    107446.9098    221422.00
    2498.000    107170.1755    220007.00
    2498.200    105932.0245    218470.00
    2498.401    104515.2427    216740.00
    2498.600    104289.9964    215467.00
    2498.800    102344.1610    213233.00
    2499.000    101283.2405    211044.00
    2499.201     98555.4104    208295.00
    2499.400     97903.3703    205656.00
    2499.601     95390.9477    203242.00
    2499.800     93830.2804    199290.00
    2500.001     91547.0702    197201.00
    2500.999    163469.7736    397541.00
    2501.999    155841.8901    404192.00
    2502.999    149324.9409    405940.00
    2504.001    143964.7541    407632.00
    2505.001    137542.6136    408168.00
    2506.000    133616.7046    409951.00
    2507.000    129529.1187    409407.00
    2508.000    126998.9046    410314.00
    2509.000    125612.7723    411411.00
    2510.001    125705.0754    411952.00
    2511.001    124890.6249    412655.00
    2512.000    126075.8095    412510.00
    2513.001    125008.4671    413101.00
    2514.000    125513.1522    414821.00
    2515.000    125201.4230    412991.00
    2516.000    126186.8202    416101.00
    2517.000    126243.6994    415807.00
    2518.001    126379.9537    417297.00
    2518.999    127452.2521    420136.00
    2520.001    126467.1481    423385.00
    2521.000    127275.3056    425513.00
    2522.001    127614.3367    427471.00
    2523.001    127902.4530    429386.00
    2524.000    128703.7168    430582.00
    2524.999    128615.1679    433542.00
    2526.000    129737.0407    433246.00
    2527.000    129471.0566    433410.00
    2527.999    129886.3591    436324.00
    2529.000    129295.5514    434209.00
    2530.000    128578.2773    433630.00
    2531.001    129214.0198    431801.00
    2532.000    129418.7472    432234.00
    2533.000    130661.6040    430737.00
    2534.000    129768.3652    429287.00
    2535.001    129115.9464    427900.00
    2536.000    129225.5073    422687.00
    2537.000    128619.2966    422455.00
    2538.000    127572.2135    416742.00
    2538.999    129752.9991    417135.00
    2540.000    128570.9064    415207.00
    2541.000    129941.2483    416180.00
    2542.000    130313.0099    415379.00
    2543.000    131164.3215    412855.00
    2544.001    129625.7717    407755.00
    2545.000    132418.6086    413612.00
    2546.000    132458.8337    411721.00
    2547.000    132651.9675    411791.00
    2548.000    135055.9560    414350.00
    2549.001    135874.5098    414763.00
    2550.000    137194.8478    418986.00
