#XDI/1.1  GSE/2.0
# Column.1: energy eV
# Column.2: ifluor
# Column.3: i0
# Scan.end_time: 2018-02-22 17:31:13
# Scan.start_time: 2018-02-22 17:26:10
# Element.symbol:  S
# Element.edge:  K
# Mono.d_spacing:  3.13477
# Mono.name: Si 111
# Sample.formula: CaSO4.2(H2O)
# Sample.name: gypsum
# Sample.prep: powder on tape halogen-free tape
# Sample.temperature: room temperature
# Facility.Name:  APS
# Beamline.Name:  13-ID-E
# Beamline.xray_source:  3.6cm undulator
# Beamline.I0: He, 200 cm
# Beamline.If: 4-element SDD (Vortex ME-4)
# ScanParameters.ScanType: xafs
# ScanParameters.E0: 2472.000
# ScanParameters.Legend:  Start, Stop, Step, K-space, Time
# ScanParameters.Region1:    -25.000,   -10.000,     1.500  False  1.00
# ScanParameters.Region2:    -10.000,    15.000,     0.100  False  1.00
# ScanParameters.Region3:     15.000,    75.000,     1.500  False  1.00
#-------------------------
#  energy  ifluor  i0
    2446.999       304.03   9691520.00
    2448.498       305.03   9669815.00
    2449.998       342.03  10131257.00
    2451.498       348.03  10450434.00
    2452.998       393.04  11440548.00
    2454.498       450.05  11672435.00
    2455.998       448.05  11777705.00
    2457.499       473.05  11909017.00
    2458.999       466.05  11739773.00
    2460.412       505.05  11415794.00
    2461.475       502.05  11281549.00
    2462.012       497.05  11096354.00
    2462.200       532.05  11137697.00
    2462.301       545.05  11128422.00
    2462.401       503.05  11075410.00
    2462.502       536.05  11117000.00
    2462.602       512.05  11098679.00
    2462.702       504.05  11077578.00
    2462.801       554.05  11032468.00
    2462.901       512.05  11052814.00
    2463.001       541.05  11070283.00
    2463.101       518.05  11048284.00
    2463.201       506.05  11120205.00
    2463.301       540.05  11154474.00
    2463.401       554.05  11136469.00
    2463.501       587.06  11119025.00
    2463.601       559.05  11073026.00
    2463.701       522.05  11005934.00
    2463.801       595.06  11024955.00
    2463.902       553.06  11178106.00
    2464.002       579.06  11201747.00
    2464.102       565.06  11195862.00
    2464.202       593.06  11194967.00
    2464.302       611.06  11257901.00
    2464.401       576.06  11255247.00
    2464.501       590.06  11255347.00
    2464.601       644.06  11285236.00
    2464.701       611.06  11211311.00
    2464.802       701.07  11373520.00
    2464.902       649.07  11353791.00
    2465.001       621.06  11360663.00
    2465.102       612.06  11334883.00
    2465.202       669.07  11346173.00
    2465.302       635.06  11308460.00
    2465.402       632.06  11354733.00
    2465.502       693.07  11393076.00
    2465.602       659.07  11396217.00
    2465.702       687.07  11392870.00
    2465.801       640.06  11331497.00
    2465.901       726.07  11329178.00
    2466.002       692.07  11294952.00
    2466.102       681.07  11338203.00
    2466.201       699.07  11358570.00
    2466.301       735.08  11353259.00
    2466.401       727.07  11322098.00
    2466.501       734.08  11252124.00
    2466.601       795.08  11389798.00
    2466.702       751.08  11426875.00
    2466.802       762.08  11401190.00
    2466.901       731.08  11401161.00
    2467.002       778.08  11431176.00
    2467.101       768.08  11456749.00
    2467.201       784.08  11436757.00
    2467.301       753.08  11475457.00
    2467.401       822.09  11501091.00
    2467.501       826.09  11550561.00
    2467.601       821.09  11531426.00
    2467.701       793.08  11507333.00
    2467.801       873.10  11527349.00
    2467.901       837.09  11508103.00
    2468.002       832.09  11480003.00
    2468.102       899.10  11504486.00
    2468.201       998.11  11546751.00
    2468.301       998.11  11520236.00
    2468.402       917.10  11474970.00
    2468.502      1010.11  11543714.00
    2468.601      1001.11  11551895.00
    2468.701      1043.12  11563184.00
    2468.801      1042.12  11586040.00
    2468.901      1141.13  11605182.00
    2469.001      1192.14  11560883.00
    2469.102      1124.13  11546722.00
    2469.201      1245.15  11573495.00
    2469.301      1205.14  11516599.00
    2469.401      1404.17  11607167.00
    2469.501      1541.20  11607412.00
    2469.601      1622.21  11593277.00
    2469.701      1831.24  11621411.00
    2469.801      2028.27  11602366.00
    2469.901      2117.30  11566463.00
    2470.002      2329.33  11559655.00
    2470.102      2489.37  11642918.00
    2470.202      2548.39  11644873.00
    2470.301      2639.41  11606072.00
    2470.401      2722.42  11587292.00
    2470.501      2828.45  11603516.00
    2470.601      2860.45  11583586.00
    2470.702      3011.49  11605926.00
    2470.802      3107.50  11640871.00
    2470.902      3379.58  11656563.00
    2471.002      3569.62  11616498.00
    2471.101      3753.67  11599421.00
    2471.202      3929.72  11646216.00
    2471.302      4126.78  11641828.00
    2471.402      4524.90  11677600.00
    2471.502      4647.93  11647792.00
    2471.601      4602.93  11636258.00
    2471.701      4458.86  11638373.00
    2471.801      4551.90  11682120.00
    2471.901      4501.90  11670545.00
    2472.001      4472.87  11641589.00
    2472.102      4266.82  11603197.00
    2472.202      4259.82  11604845.00
    2472.302      4034.75  11636834.00
    2472.402      4082.78  11596227.00
    2472.501      3979.74  11628117.00
    2472.602      3779.68  11614976.00
    2472.702      3628.63  11657587.00
    2472.801      3572.63  11691625.00
    2472.901      3611.63  11590141.00
    2473.001      3521.61  11626276.00
    2473.101      3548.62  11627775.00
    2473.201      3612.63  11667033.00
    2473.301      3714.67  11708830.00
    2473.401      3619.64  11759689.00
    2473.501      3710.66  11751221.00
    2473.601      3793.69  11710071.00
    2473.701      3774.69  11763412.00
    2473.801      3882.71  11798638.00
    2473.902      3971.75  11824164.00
    2474.001      4052.77  11835371.00
    2474.101      4178.79  11848391.00
    2474.201      4104.79  11883428.00
    2474.302      4202.82  11902472.00
    2474.402      4259.82  11914325.00
    2474.502      4342.86  11897008.00
    2474.602      4474.90  11867978.00
    2474.702      4561.91  11812803.00
    2474.801      4599.94  11768433.00
    2474.901      4725.96  11813723.00
    2475.002      4994.05  11834002.00
    2475.102      5038.06  11793515.00
    2475.201      5304.18  11777234.00
    2475.301      5203.13  11794565.00
    2475.401      5484.23  11818461.00
    2475.501      5670.28  11770968.00
    2475.601      5718.31  11773257.00
    2475.702      5886.39  11829443.00
    2475.802      6125.48  11853902.00
    2475.902      6056.44  11739361.00
    2476.002      6133.46  11718252.00
    2476.102      6393.57  11762170.00
    2476.202      6575.67  11842174.00
    2476.301      6690.68  11580554.00
    2476.401      7084.90  12030681.00
    2476.502      7354.01  11970148.00
    2476.601      7532.07  11751547.00
    2476.701      7744.20  11851931.00
    2476.802      8342.48  11989975.00
    2476.902      8945.81  12018164.00
    2477.002      9173.91  12102169.00
    2477.101      9796.30  12034486.00
    2477.202     10190.56  12048552.00
    2477.302     10481.70  12006167.00
    2477.401     10682.81  12005102.00
    2477.501     10778.92  11993696.00
    2477.601     10900.93  11974379.00
    2477.702     10845.86  11765304.00
    2477.802     10855.90  11945745.00
    2477.902     10912.95  11882411.00
    2478.001     10763.77  11651483.00
    2478.101     10867.95  12063007.00
    2478.201     10518.73  12060985.00
    2478.301     11009.10  12068944.00
    2478.401     11221.16  12092019.00
    2478.501     11646.47  12058199.00
    2478.602     12069.75  12034933.00
    2478.702     12281.89  12010683.00
    2478.801     13204.54  12006530.00
    2478.902     13746.01  12058415.00
    2479.002     14778.77  12058082.00
    2479.102     15462.41  12074132.00
    2479.202     16366.26  12010574.00
    2479.302     17807.57  12035468.00
    2479.401     19181.97  12076299.00
    2479.501     20748.74  12123181.00
    2479.601     22532.86  12095540.00
    2479.701     24394.25  12088813.00
    2479.801     27056.94  12141152.00
    2479.901     29916.17  12114043.00
    2480.001     33688.73  12087227.00
    2480.102     38354.56  12059471.00
    2480.202     43643.79  12101475.00
    2480.302     50365.41  12093502.00
    2480.402     57087.35  12031754.00
    2480.502     66164.53  12028259.00
    2480.602     75230.15  12020963.00
    2480.702     84622.09  12059553.00
    2480.802     92940.82  12064382.00
    2480.902    101077.24  12046588.00
    2481.001    110113.65  12090036.00
    2481.101    116303.76  12110602.00
    2481.201    123794.05  12179157.00
    2481.301    128949.66  12125201.00
    2481.401    133154.87  12177743.00
    2481.501    137199.04  12162579.00
    2481.601    139813.16  12170847.00
    2481.701    141289.72  12188875.00
    2481.802    141108.41  12173900.00
    2481.902    139743.19  12170570.00
    2482.002    137203.91  12145717.00
    2482.102    134243.74  12110878.00
    2482.202    128376.63  12070373.00
    2482.302    123208.66  12087749.00
    2482.402    116388.54  12105428.00
    2482.501    108672.79  12122124.00
    2482.602    100844.08  12131391.00
    2482.701     93277.14  12149600.00
    2482.801     85049.47  12181672.00
    2482.901     77040.55  12151914.00
    2483.001     70478.24  12177031.00
    2483.101     64635.12  12204062.00
    2483.201     58595.85  12179425.00
    2483.301     53583.92  12147867.00
    2483.401     49737.52  12127542.00
    2483.502     47594.04  12190655.00
    2483.602     45202.32  12197258.00
    2483.701     44244.97  12266420.00
    2483.801     42769.68  12252883.00
    2483.901     42282.44  12304952.00
    2484.001     42198.00  12255105.00
    2484.102     41933.54  12190621.00
    2484.201     42013.77  12189263.00
    2484.301     42726.53  12210951.00
    2484.402     43289.54  12214043.00
    2484.502     44475.91  12232554.00
    2484.602     44968.72  12249879.00
    2484.702     45580.29  12220178.00
    2484.802     46119.82  12172526.00
    2484.902     46847.63  12161521.00
    2485.002     46807.17  12162187.00
    2485.101     46908.41  12178620.00
    2485.201     46302.39  12166275.00
    2485.301     45196.54  12137395.00
    2485.401     44432.75  12152295.00
    2485.501     43075.72  12178944.00
    2485.601     41516.95  12152346.00
    2485.702     40013.58  12151992.00
    2485.801     38672.96  12202564.00
    2485.901     36832.35  12197700.00
    2486.001     35196.87  12194321.00
    2486.101     34090.07  12139349.00
    2486.201     32808.72  12168174.00
    2486.302     31734.83  12148508.00
    2486.402     31044.71  12117397.00
    2486.501     30343.75  12125445.00
    2486.601     29729.42  12113620.00
    2486.702     29524.14  12122896.00
    2486.802     29408.17  12245510.00
    2486.989     29744.65  12422880.00
    2487.526     30432.90  12541439.00
    2488.588     33628.60  12429361.00
    2489.999     40779.80  12210812.00
    2491.499     43417.84  12249969.00
    2492.999     40639.50  12212918.00
    2494.499     42825.30  12254194.00
    2495.999     46864.99  11954734.00
    2497.499     53378.34  11846522.00
    2498.999     55089.57  12082547.00
    2500.499     49702.24  11989022.00
    2501.999     45292.28  12344659.00
    2503.499     41696.91  12286435.00
    2504.999     39310.84  12410824.00
    2506.499     36595.12  12427858.00
    2507.999     33316.91  12374957.00
    2509.499     33055.34  12448355.00
    2510.999     33000.21  12361097.00
    2512.499     32520.24  12073305.00
    2513.999     32416.12  11948665.00
    2515.499     34161.30  12386291.00
    2516.999     34598.66  12412516.00
    2518.499     35184.65  12671377.00
    2519.999     34926.32  12613708.00
    2521.499     35069.71  12862717.00
    2522.999     35039.42  12826387.00
    2524.499     34810.88  12708557.00
    2526.000     35427.02  13007033.00
    2527.499     34242.23  12639973.00
    2528.999     35275.91  12827461.00
    2530.499     34771.80  12693469.00
    2531.999     34930.30  12659838.00
    2533.499     34233.83  12529697.00
    2534.999     34690.53  12609067.00
    2536.500     35433.01  12790300.00
    2538.000     33902.26  12162390.00
    2539.499     33841.67  12051405.00
    2541.000     33098.45  11760645.00
    2542.500     33931.16  11855995.00
    2543.999     33372.83  11588223.00
