#XDI/1.1  GSE/2.0
# Column.1: energy eV
# Column.2: ifluor
# Column.3: i0
# Scan.end_time: 2018-02-22 17:48:24
# Scan.start_time: 2018-02-22 17:43:21
# Element.symbol:  S
# Element.edge:  K
# Mono.d_spacing:  3.13477
# Mono.name: Si 111
# Sample.formula: CaSO4.2(H2O)
# Sample.name: gypsum
# Sample.prep: powder on tape halogen-free tape
# Sample.temperature: room temperature
# Facility.Name:  APS
# Beamline.Name:  13-ID-E
# Beamline.xray_source:  3.6cm undulator
# Beamline.I0: He, 200 cm
# Beamline.If: 4-element SDD (Vortex ME-4)
# ScanParameters.ScanType: xafs
# ScanParameters.E0: 2472.000
# ScanParameters.Legend:  Start, Stop, Step, K-space, Time
# ScanParameters.Region1:    -25.000,   -10.000,     1.500  False  1.00
# ScanParameters.Region2:    -10.000,    15.000,     0.100  False  1.00
# ScanParameters.Region3:     15.000,    75.000,     1.500  False  1.00
#-------------------------
#  energy  ifluor  i0
    2446.999      1013.20   9248934.00
    2448.498       969.19   9383967.00
    2449.998       969.19   9623996.00
    2451.498      1174.26  10450017.00
    2452.998      1300.31  11118157.00
    2454.498      1388.34  11559218.00
    2455.999      1549.40  12088596.00
    2457.499      1603.40  12073228.00
    2458.999      1662.41  12032148.00
    2460.412      1768.43  11861084.00
    2461.475      1752.42  11709827.00
    2462.012      1849.43  11641531.00
    2462.200      1819.42  11593231.00
    2462.301      1847.42  11568934.00
    2462.401      1848.42  11595837.00
    2462.501      1936.46  11598988.00
    2462.601      1935.46  11589787.00
    2462.701      1878.43  11593806.00
    2462.802      1938.45  11593692.00
    2462.902      1934.45  11607505.00
    2463.001      1964.46  11590823.00
    2463.101      2009.47  11571236.00
    2463.202      1916.44  11480634.00
    2463.302      1899.43  11422146.00
    2463.402      1898.43  11409099.00
    2463.502      1992.46  11435078.00
    2463.601      2033.46  11395151.00
    2463.701      1980.46  11426543.00
    2463.801      1958.44  11469994.00
    2463.901      1979.45  11423333.00
    2464.002      2007.45  11391572.00
    2464.101      2017.45  11366014.00
    2464.202      2052.46  11354281.00
    2464.302      1998.44  11327798.00
    2464.402      2123.48  11298444.00
    2464.502      2075.47  11318162.00
    2464.602      2091.46  11332138.00
    2464.702      2160.48  11289309.00
    2464.802      2147.49  11290421.00
    2464.902      2130.48  11306463.00
    2465.002      2181.50  11350585.00
    2465.102      2126.48  11340069.00
    2465.201      2210.49  11219589.00
    2465.301      2173.49  11242261.00
    2465.402      2220.50  11263673.00
    2465.502      2335.53  11238105.00
    2465.602      2360.53  11201415.00
    2465.702      2342.54  11249299.00
    2465.802      2398.55  11257333.00
    2465.901      2424.54  11200943.00
    2466.001      2407.54  11211093.00
    2466.101      2432.55  11220954.00
    2466.201      2495.59  11369078.00
    2466.301      2445.56  11328674.00
    2466.401      2465.58  11310516.00
    2466.501      2540.60  11278206.00
    2466.602      2528.58  11257468.00
    2466.702      2570.60  11262523.00
    2466.802      2501.58  11272514.00
    2466.901      2672.63  11288579.00
    2467.001      2650.62  11204981.00
    2467.101      2712.64  11296785.00
    2467.201      2774.66  11311017.00
    2467.301      2814.67  11321643.00
    2467.401      2846.69  11340327.00
    2467.501      2960.72  11377132.00
    2467.601      3025.75  11388437.00
    2467.701      3007.74  11326715.00
    2467.801      3160.80  11519782.00
    2467.901      3232.82  11545631.00
    2468.001      3332.85  11525966.00
    2468.101      3299.84  11548189.00
    2468.201      3542.93  11554661.00
    2468.301      3377.86  11498756.00
    2468.401      3541.92  11471822.00
    2468.501      3630.95  11546392.00
    2468.601      3760.99  11538269.00
    2468.702      3805.02  11594869.00
    2468.802      3950.07  11616041.00
    2468.901      4071.12  11612936.00
    2469.001      4171.14  11578328.00
    2469.101      4517.30  11617381.00
    2469.201      4665.33  11628340.00
    2469.302      5089.53  11575046.00
    2469.402      5517.69  11500919.00
    2469.502      6109.01  11543355.00
    2469.602      6668.25  11453989.00
    2469.702      7292.55  11609076.00
    2469.801      8104.02  11680171.00
    2469.901      8874.58  11737850.00
    2470.001      9513.91  11672257.00
    2470.101     10313.44  11633543.00
    2470.201     10545.58  11674132.00
    2470.302     11030.03  11686232.00
    2470.401     11474.28  11623516.00
    2470.501     11680.44  11596702.00
    2470.601     11894.52  11640188.00
    2470.701     12504.14  11628060.00
    2470.802     13214.73  11661835.00
    2470.902     14040.39  11654553.00
    2471.002     14812.19  11709371.00
    2471.102     16269.51  11743063.00
    2471.202     17343.60  11674272.00
    2471.302     18083.48  11709216.00
    2471.402     19189.74  11681476.00
    2471.501     19474.15  11690974.00
    2471.601     20170.90  11718072.00
    2471.701     20696.49  11724396.00
    2471.801     20431.24  11707564.00
    2471.901     20373.08  11723131.00
    2472.002     19699.41  11741142.00
    2472.102     19537.20  11800584.00
    2472.201     18809.14  11726317.00
    2472.302     18589.98  11745110.00
    2472.401     17859.14  11746565.00
    2472.502     17750.07  11785295.00
    2472.602     16786.02  11809248.00
    2472.701     16448.71  11828541.00
    2472.801     16161.43  11834823.00
    2472.901     15845.06  11849191.00
    2473.001     15808.07  11839536.00
    2473.101     15375.52  11828427.00
    2473.202     15559.77  11860835.00
    2473.301     15597.92  11867814.00
    2473.401     15707.85  11802534.00
    2473.501     15973.11  11819588.00
    2473.601     16110.21  11790105.00
    2473.701     15996.05  11793034.00
    2473.801     16354.49  11846057.00
    2473.901     16417.64  11880722.00
    2474.002     16692.90  11910866.00
    2474.102     16891.11  11853055.00
    2474.202     17111.32  11814468.00
    2474.301     17383.54  11737678.00
    2474.401     17811.94  11725278.00
    2474.501     18641.90  11796879.00
    2474.602     18678.92  11796967.00
    2474.702     19135.50  11837211.00
    2474.802     19404.78  11851272.00
    2474.901     20080.49  11822109.00
    2475.001     20923.58  11886458.00
    2475.102     21289.99  11862675.00
    2475.202     21868.92  11931539.00
    2475.302     22822.98  11963850.00
    2475.402     23090.42  11944718.00
    2475.502     23766.26  11945064.00
    2475.602     24281.13  11931013.00
    2475.701     24591.50  11938018.00
    2475.801     25242.49  11965759.00
    2475.902     25732.04  11992855.00
    2476.002     26002.59  11907919.00
    2476.101     26550.35  11912695.00
    2476.202     27220.21  11874828.00
    2476.301     27510.11  11514909.00
    2476.401     28258.88  11911400.00
    2476.501     29176.41  11929039.00
    2476.601     30792.62  11756718.00
    2476.701     32031.38  12035067.00
    2476.801     33902.95  12016932.00
    2476.902     35113.27  11994608.00
    2477.002     37789.47  11973305.00
    2477.102     39045.30  11916082.00
    2477.202     40007.30  11898574.00
    2477.302     41722.08  11940013.00
    2477.402     42473.02  11960159.00
    2477.502     42164.07  11922870.00
    2477.602     42080.20  11933242.00
    2477.702     42578.97  11733360.00
    2477.801     42165.64  11861210.00
    2477.902     41601.92  11917001.00
    2478.002     41255.28  11755190.00
    2478.102     41140.25  12124762.00
    2478.202     42032.71  12161520.00
    2478.302     42430.75  12124652.00
    2478.401     43266.78  12148416.00
    2478.501     44568.71  12134927.00
    2478.601     45984.13  12064860.00
    2478.701     48007.17  12041680.00
    2478.801     50036.50  12062209.00
    2478.902     52067.34  12085458.00
    2479.001     55492.22  12142514.00
    2479.102     58136.60  12113135.00
    2479.201     61721.51  12148713.00
    2479.301     65233.77  12079190.00
    2479.401     69091.94  12027046.00
    2479.501     74008.07  12017904.00
    2479.601     80017.92  12105086.00
    2479.701     86227.93  12124698.00
    2479.801     93275.33  12125870.00
    2479.902    102494.81  12078849.00
    2480.002    112589.60  12091917.00
    2480.102    124574.27  12102750.00
    2480.202    138609.89  12107288.00
    2480.302    153227.72  12077839.00
    2480.401    171026.31  12137277.00
    2480.501    187139.43  12082412.00
    2480.602    205707.94  12067097.00
    2480.701    221609.42  12104948.00
    2480.801    236957.77  12137768.00
    2480.901    249526.34  12159291.00
    2481.001    259803.82  12093341.00
    2481.101    270361.51  12092623.00
    2481.201    279409.87  12119935.00
    2481.301    286956.67  12181013.00
    2481.402    293713.81  12230210.00
    2481.502    295584.63  12213489.00
    2481.601    297842.36  12152560.00
    2481.701    297337.29  12094493.00
    2481.801    297308.79  12082020.00
    2481.901    294797.65  12077458.00
    2482.002    292607.56  12068750.00
    2482.101    288253.09  12111121.00
    2482.201    281679.36  12101568.00
    2482.301    272875.43  12110021.00
    2482.402    262884.57  12108771.00
    2482.502    253779.84  12158576.00
    2482.602    240180.51  12072431.00
    2482.702    227034.88  12083445.00
    2482.802    214264.99  12099559.00
    2482.901    200908.52  12104751.00
    2483.001    188563.57  12096847.00
    2483.102    178003.62  12142915.00
    2483.201    165517.56  12147337.00
    2483.301    156345.30  12147753.00
    2483.401    149084.54  12177956.00
    2483.502    141420.43  12151172.00
    2483.602    137334.38  12196437.00
    2483.701    133743.87  12206039.00
    2483.801    130245.37  12170776.00
    2483.901    129789.43  12233277.00
    2484.001    130072.60  12207925.00
    2484.101    130487.51  12204715.00
    2484.201    130360.43  12144393.00
    2484.301    132583.25  12169945.00
    2484.402    135328.76  12183019.00
    2484.502    138748.87  12254760.00
    2484.602    140237.41  12218105.00
    2484.702    142239.26  12178299.00
    2484.802    144937.29  12199398.00
    2484.901    145943.02  12172512.00
    2485.001    147258.32  12171398.00
    2485.101    146678.63  12136052.00
    2485.201    145280.46  12126639.00
    2485.301    144136.18  12175463.00
    2485.401    141812.96  12238292.00
    2485.501    138979.74  12290158.00
    2485.602    134180.10  12235603.00
    2485.702    129691.74  12185706.00
    2485.802    125477.98  12166367.00
    2485.901    122214.47  12179199.00
    2486.002    118653.50  12214703.00
    2486.102    114621.80  12183840.00
    2486.202    112042.42  12168938.00
    2486.301    108410.45  12084855.00
    2486.402    106236.98  12069242.00
    2486.502    104847.55  12156343.00
    2486.602    103147.74  12120427.00
    2486.702    102119.19  12104556.00
    2486.802    101890.28  12251463.00
    2486.989    102085.08  12456441.00
    2487.526    104037.90  12553239.00
    2488.588    110950.59  12331219.00
    2490.000    124776.02  12114285.00
    2491.499    132424.51  11968907.00
    2492.999    127985.27  11983896.00
    2494.499    127901.63  11933723.00
    2495.999    146365.57  11898844.00
    2497.499    162658.28  11869010.00
    2498.999    167266.39  11919527.00
    2500.499    156031.07  12135669.00
    2501.999    139469.29  12090400.00
    2503.500    129376.40  12184832.00
    2504.999    125860.52  12382930.00
    2506.499    119836.12  12387696.00
    2507.999    110376.97  12182822.00
    2509.499    111744.51  12508104.00
    2510.998    110571.38  12424489.00
    2512.499    109353.15  12218999.00
    2513.999    111286.44  12239953.00
    2515.499    113996.17  12334845.00
    2516.999    116895.26  12375310.00
    2518.499    118393.23  12378662.00
    2519.999    119075.22  12595110.00
    2521.499    115972.86  12415061.00
    2522.999    117023.24  12664028.00
    2524.499    116645.07  12714349.00
    2525.999    117215.11  12676095.00
    2527.499    118537.57  12802000.00
    2528.999    117623.95  12697274.00
    2530.499    116391.81  12568546.00
    2531.999    113847.81  12394989.00
    2533.500    115968.56  12607488.00
    2535.000    114502.64  12468635.00
    2536.499    114911.69  12382099.00
    2537.999    108897.40  11629658.00
    2539.500    108903.90  11650795.00
    2540.999    109534.53  11637142.00
    2542.500    109626.16  11543014.00
    2544.000    110827.16  11503219.00
