#XDI/1.1  GSE/1.0
# Column.1: energy eV
# Column.2: ifluor
# Column.3: i0
# Scan.end_time: 2013-08-05 17:57:53
# Scan.start_time: 2013-08-05 17:47:03
# Element.symbol:  S
# Element.edge:  K
# Mono.d_spacing:  3.13477
# Mono.name: Si 111
# Sample.formula: CaSO4
# Sample.name: calcium sulfate, gypsum
# Sample.prep: powder on halogen-free tape
# Sample.temperature: room temperature
# Facility.Name:  APS
# Beamline.Name:  13-ID-E
# Beamline.xray_source:  3.6cm undulator
# Beamline.I0: He,  20 cm
# Beamline.If: 4-element SDD (Vortex ME-4)
# ScanParameters.ScanType: xafs
# ScanParameters.E0: 2472.000
# ScanParameters.Start: Scan.Member: Value
# ScanParameters.E0: 2472.00
# ScanParameters.Legend: Start       Stop       Step       Npts       Time   Kspace?
# ScanParameters.Region1: 2450.0     2468.0     1.0000     19.000     2.0000   0
# ScanParameters.Region2: 2468.0     2500.0    0.25000     129.00     2.0000   0
# ScanParameters.Region3: 2500.0     2550.0    0.50000     101.00     2.0000   0
#-------------------------
#  energy  ifluor  i0
    2450.000     11274.1137      3758.00
    2451.000     10110.4086      3291.00
    2452.000      8493.1496      2863.00
    2453.001      8123.5908      2737.00
    2454.001      7848.8986      2719.00
    2455.000      7986.8091      2855.00
    2456.000      8435.0708      2986.00
    2457.001      8419.0953      3006.00
    2458.001      8602.5959      3071.00
    2459.001      8384.8728      2981.00
    2460.000      8130.5119      2903.00
    2461.000      8455.9883      3049.00
    2462.000      8042.2430      2941.00
    2463.000      7791.1895      2875.00
    2464.000      7962.5803      2906.00
    2465.000      7645.7449      2888.00
    2466.001      7831.9340      2863.00
    2467.000      7890.1905      2904.00
    2468.001      8158.2945      2931.00
    2468.251      8052.6942      2886.00
    2468.500      7993.2021      2911.00
    2468.750      8362.4599      2967.00
    2469.001      8363.0976      2995.00
    2469.251      8211.9980      2927.00
    2469.500      8302.1177      2911.00
    2469.750      8227.0306      2894.00
    2470.000      8215.3545      2968.00
    2470.251      8391.7201      2989.00
    2470.500      8317.8736      2950.00
    2470.750      8491.2907      2928.00
    2471.002      8400.3791      2942.00
    2471.249      9128.4395      3011.00
    2471.502      8957.5542      3058.00
    2471.750      9112.4582      3027.00
    2472.000      9102.3694      2995.00
    2472.250      9157.6479      3037.00
    2472.500      9416.3425      3063.00
    2472.751      9351.1561      3118.00
    2473.000      9728.5014      3114.00
    2473.250      9800.0640      3074.00
    2473.501      9902.4290      3056.00
    2473.751     10326.6527      3146.00
    2474.001     10752.0444      3205.00
    2474.250     10621.7740      3193.00
    2474.501     10886.6382      3154.00
    2474.750     11196.6693      3216.00
    2475.000     11925.8612      3291.00
    2475.251     12305.8772      3378.00
    2475.500     12930.9991      3401.00
    2475.750     13515.8526      3407.00
    2475.999     13843.2527      3371.00
    2476.251     14008.2415      3288.00
    2476.500     14947.4250      3416.00
    2476.750     15800.6935      3389.00
    2477.003     16820.0797      3417.00
    2477.250     18021.9052      3345.00
    2477.500     19052.4265      3385.00
    2477.750     21058.2673      3468.00
    2478.000     22347.7955      3444.00
    2478.250     24642.1393      3487.00
    2478.500     26604.0307      3425.00
    2478.750     29540.1096      3425.00
    2479.000     34464.0699      3474.00
    2479.250     39682.5892      3509.00
    2479.500     47375.8852      3498.00
    2479.750     56697.5351      3448.00
    2480.000     70969.6684      3402.00
    2480.250     91745.4881      3398.00
    2480.500    117978.3597      3427.00
    2480.750    142869.9258      3443.00
    2481.000    157242.8211      3387.00
    2481.250    167332.0055      3363.00
    2481.500    172486.5111      3347.00
    2481.750    175702.0971      3390.00
    2482.000    175799.4374      3419.00
    2482.251    165262.2050      3402.00
    2482.500    152183.9696      3379.00
    2482.750    135553.8328      3387.00
    2482.999    118300.1300      3397.00
    2483.250    102819.9926      3436.00
    2483.500     89795.0956      3474.00
    2483.750     82636.7301      3482.00
    2484.000     78984.1765      3401.00
    2484.250     79932.0653      3395.00
    2484.500     83948.4602      3435.00
    2484.750     89376.0144      3425.00
    2485.000     93115.0975      3435.00
    2485.250     93059.5094      3386.00
    2485.499     90127.4030      3429.00
    2485.750     83833.9324      3440.00
    2486.000     76197.6741      3406.00
    2486.250     70270.7720      3400.00
    2486.500     66147.7867      3347.00
    2486.749     62886.6861      3314.00
    2487.000     60993.6527      3261.00
    2487.250     60594.2623      3287.00
    2487.501     61755.9162      3312.00
    2487.750     61570.1414      3288.00
    2488.000     60543.6414      3190.00
    2488.250     62744.4019      3222.00
    2488.501     63600.3687      3171.00
    2488.750     64810.3013      3125.00
    2489.000     66226.9194      3096.00
    2489.250     66055.3731      3027.00
    2489.500     69275.8080      3072.00
    2489.751     71522.0778      3038.00
    2489.999     74546.0977      3004.00
    2490.249     77069.3769      2972.00
    2490.500     80027.3740      2944.00
    2490.750     81481.2739      2912.00
    2491.000     81953.1550      2896.00
    2491.250     83860.6376      2945.00
    2491.500     82822.3300      2923.00
    2491.750     81327.0709      2890.00
    2492.001     76865.3328      2767.00
    2492.250     76551.7110      2765.00
    2492.500     73090.2174      2707.00
    2492.750     72669.9353      2751.00
    2492.999     71323.9891      2753.00
    2493.250     66606.1337      2625.00
    2493.501     64542.5507      2594.00
    2493.750     63961.5271      2596.00
    2494.000     64624.3874      2630.00
    2494.250     65738.4923      2650.00
    2494.500     66600.4677      2651.00
    2494.751     66706.3214      2637.00
    2495.001     67792.9359      2621.00
    2495.251     67713.4559      2580.00
    2495.500     70978.0118      2646.00
    2495.750     74019.4370      2703.00
    2496.000     71932.4900      2590.00
    2496.250     70547.2788      2516.00
    2496.500     72259.4442      2510.00
    2496.750     74925.5636      2572.00
    2497.001     77884.8006      2624.00
    2497.251     80244.7971      2671.00
    2497.500     79425.5408      2618.00
    2497.750     79575.0572      2613.00
    2498.001     81130.3956      2616.00
    2498.250     83809.7885      2680.00
    2498.502     86861.8241      2762.00
    2498.750     88237.0533      2797.00
    2499.000     87075.0707      2767.00
    2499.250     89190.3393      2848.00
    2499.500     90936.3568      2908.00
    2499.750     93948.1496      3005.00
    2500.000     95888.4562      3086.00
    2500.500     91894.3828      3004.00
    2501.000     91461.9607      3047.00
    2501.500     92266.2428      3151.00
    2502.001     89754.1612      3151.00
    2502.500     91712.8320      3285.00
    2503.000     94016.5494      3426.00
    2503.501     89280.3695      3313.00
    2504.000     91597.9283      3442.00
    2504.500     93722.3661      3593.00
    2505.000     93172.2857      3590.00
    2505.500     93532.1246      3683.00
    2506.000     90563.4766      3636.00
    2506.500     88635.7880      3650.00
    2507.000     88741.3571      3759.00
    2507.500     85991.7077      3733.00
    2508.000     82681.4266      3693.00
    2508.500     83933.8284      3786.00
    2508.999     81895.4485      3734.00
    2509.500     80089.9214      3690.00
    2510.000     81376.8862      3748.00
    2510.499     80797.1942      3713.00
    2511.001     78960.7518      3614.00
    2511.500     80352.6193      3653.00
    2512.000     80225.6693      3615.00
    2512.500     78292.1956      3558.00
    2513.000     80785.5746      3619.00
    2513.500     80440.8783      3576.00
    2514.000     80256.0158      3563.00
    2514.500     83520.6689      3660.00
    2515.000     83736.9013      3616.00
    2515.500     83228.1065      3585.00
    2516.000     86036.3034      3685.00
    2516.500     85725.0850      3653.00
    2517.001     85775.4198      3640.00
    2517.500     85792.2715      3640.00
    2518.001     86063.0284      3636.00
    2518.501     85945.4710      3640.00
    2519.000     87185.7108      3714.00
    2519.500     85626.3650      3662.00
    2520.000     84673.2572      3634.00
    2520.500     85875.3546      3706.00
    2521.000     86084.9876      3706.00
    2521.500     86463.2868      3738.00
    2522.000     87136.4852      3734.00
    2522.500     87146.3371      3775.00
    2523.000     87955.1544      3793.00
    2523.501     88168.3609      3829.00
    2524.000     89056.1738      3850.00
    2524.501     89459.8071      3881.00
    2525.001     91531.3645      3980.00
    2525.500     93633.5352      4050.00
    2526.001     91724.4539      4001.00
    2526.500     94793.1081      4103.00
    2527.000     96276.8341      4190.00
    2527.501     96884.4061      4202.00
    2528.000     98328.7646      4253.00
    2528.501     99561.3343      4293.00
    2529.000     96625.6611      4199.00
    2529.500     98547.4504      4279.00
    2530.000    100630.1500      4355.00
    2530.501     99940.3897      4334.00
    2531.000    101576.6999      4385.00
    2531.500    102817.9261      4465.00
    2531.999    102443.5078      4427.00
    2532.500    103418.3566      4472.00
    2533.000    105130.5766      4514.00
    2533.500    104279.0740      4478.00
    2534.000    104298.4166      4455.00
    2534.499    105066.9996      4500.00
    2535.000    104869.0522      4454.00
    2535.499    103663.0954      4408.00
    2536.000    105899.1940      4465.00
    2536.499    106196.9278      4465.00
    2537.000    104360.7468      4400.00
    2537.501    105731.5420      4417.00
    2538.000    105900.5957      4406.00
    2538.500    104056.8811      4315.00
    2539.000    102384.3608      4262.00
    2539.500    104421.3957      4298.00
    2539.999    100452.0580      4148.00
    2540.500     99704.6939      4107.00
    2541.000    100795.5504      4142.00
    2541.500     98132.5151      4040.00
    2542.000     98425.5768      4010.00
    2542.500     98742.3522      4012.00
    2542.999     95180.1225      3884.00
    2543.500     92526.1378      3790.00
    2544.000     92286.6490      3753.00
    2544.501     91352.4902      3720.00
    2544.999     86197.1694      3515.00
    2545.501     86663.3005      3495.00
    2546.000     85642.0486      3464.00
    2546.500     82535.3864      3334.00
    2547.000     83656.4631      3358.00
    2547.500     86319.2675      3440.00
    2548.000     83180.8079      3316.00
    2548.501     83993.1893      3312.00
    2549.000     88217.4064      3456.00
    2549.500     88738.3706      3466.00
    2550.000     89475.0384      3470.00
