#XDI/1.1  GSE/2.0
# Column.1: energy eV
# Column.2: ifluor
# Column.3: i0
# Scan.end_time: 2018-02-22 17:43:12
# Scan.start_time: 2018-02-22 17:38:09
# Element.symbol:  S
# Element.edge:  K
# Mono.d_spacing:  3.13477
# Mono.name: Si 111
# Sample.formula: CaSO4.2(H2O)
# Sample.name: gypsum
# Sample.prep: powder on tape halogen-free tape
# Sample.temperature: room temperature
# Facility.Name:  APS
# Beamline.Name:  13-ID-E
# Beamline.xray_source:  3.6cm undulator
# Beamline.I0: He,  20 cm
# Beamline.If: 4-element SDD (Vortex ME-4)
# ScanParameters.ScanType: xafs
# ScanParameters.E0: 2472.000
# ScanParameters.Legend:  Start, Stop, Step, K-space, Time
# ScanParameters.Region1:    -25.000,   -10.000,     1.500  False  1.00
# ScanParameters.Region2:    -10.000,    15.000,     0.100  False  1.00
# ScanParameters.Region3:     15.000,    75.000,     1.500  False  1.00
#-------------------------
#  energy  ifluor  i0
    2446.999       947.19   9545333.00
    2448.498       960.19   9611125.00
    2449.998      1080.23  10230189.00
    2451.498      1154.25  10567357.00
    2452.998      1285.31  11607758.00
    2454.498      1384.34  12041060.00
    2455.999      1431.35  12067659.00
    2457.498      1472.35  12104748.00
    2458.999      1521.36  12100310.00
    2460.412      1570.36  11844440.00
    2461.475      1652.36  11727446.00
    2462.012      1707.38  11584038.00
    2462.200      1689.36  11525254.00
    2462.301      1748.39  11581159.00
    2462.401      1761.38  11607989.00
    2462.501      1716.38  11589863.00
    2462.601      1743.38  11536639.00
    2462.701      1768.39  11558071.00
    2462.801      1801.40  11563417.00
    2462.901      1785.39  11549560.00
    2463.001      1790.40  11535474.00
    2463.101      1788.39  11533926.00
    2463.201      1888.41  11564771.00
    2463.301      1816.41  11512045.00
    2463.401      1824.40  11463997.00
    2463.502      1881.41  11463534.00
    2463.602      1756.38  11470170.00
    2463.701      1843.40  11423772.00
    2463.801      1892.41  11460694.00
    2463.901      1910.41  11486556.00
    2464.001      1911.41  11474668.00
    2464.101      1963.42  11403070.00
    2464.201      1899.41  11404106.00
    2464.301      1934.42  11433745.00
    2464.401      2006.44  11425425.00
    2464.502      1982.42  11338507.00
    2464.602      1969.43  11390331.00
    2464.702      2065.44  11363210.00
    2464.801      2041.44  11305990.00
    2464.901      2110.46  11479061.00
    2465.001      2026.45  11501036.00
    2465.101      2082.45  11471648.00
    2465.201      2114.47  11453616.00
    2465.301      2218.49  11448113.00
    2465.401      2156.48  11435918.00
    2465.501      2205.48  11441706.00
    2465.601      2224.50  11449158.00
    2465.701      2300.52  11440167.00
    2465.801      2237.49  11416486.00
    2465.901      2331.52  11441658.00
    2466.001      2348.53  11382815.00
    2466.101      2306.51  11467805.00
    2466.201      2247.49  11457512.00
    2466.301      2270.50  11432990.00
    2466.401      2274.50  11456194.00
    2466.502      2321.52  11423813.00
    2466.602      2305.51  11495278.00
    2466.702      2378.53  11434853.00
    2466.802      2457.56  11510008.00
    2466.901      2415.55  11507844.00
    2467.002      2505.57  11469833.00
    2467.102      2474.56  11495246.00
    2467.202      2452.55  11450756.00
    2467.302      2582.59  11441683.00
    2467.401      2545.58  11518113.00
    2467.501      2582.59  11598524.00
    2467.601      2683.63  11617055.00
    2467.701      2725.63  11602407.00
    2467.801      2731.63  11594726.00
    2467.901      2777.65  11632076.00
    2468.001      2803.67  11623519.00
    2468.102      2847.68  11654603.00
    2468.201      2948.70  11617611.00
    2468.301      3093.74  11646867.00
    2468.401      3071.74  11634978.00
    2468.501      3098.73  11600329.00
    2468.601      3073.74  11617943.00
    2468.701      3236.79  11610578.00
    2468.801      3164.78  11623173.00
    2468.901      3311.82  11613363.00
    2469.001      3372.84  11619710.00
    2469.101      3501.89  11655822.00
    2469.201      3536.88  11670808.00
    2469.301      3845.00  11664022.00
    2469.402      3920.03  11681517.00
    2469.502      4172.12  11708153.00
    2469.602      4446.22  11686368.00
    2469.701      4796.37  11698937.00
    2469.801      5160.52  11711359.00
    2469.902      5547.69  11741522.00
    2470.001      5812.83  11725604.00
    2470.102      6065.94  11723510.00
    2470.202      6342.03  11746513.00
    2470.301      6605.20  11769895.00
    2470.402      6678.21  11701545.00
    2470.501      6685.20  11686535.00
    2470.601      7142.43  11680726.00
    2470.701      7303.51  11695660.00
    2470.801      7673.70  11716903.00
    2470.902      8174.99  11744682.00
    2471.002      8297.11  11708288.00
    2471.101      9022.53  11729081.00
    2471.201      9565.86  11751766.00
    2471.301      9962.11  11714757.00
    2471.401     10249.28  11727889.00
    2471.502     10885.78  11760315.00
    2471.601     10877.71  11710513.00
    2471.702     10788.72  11701859.00
    2471.802     10981.83  11803069.00
    2471.901     10976.80  11789831.00
    2472.001     10772.63  11757211.00
    2472.102     10854.72  11750449.00
    2472.202     10543.49  11739000.00
    2472.301     10349.36  11738173.00
    2472.401     10214.29  11772100.00
    2472.501      9911.05  11738807.00
    2472.601      9854.03  11707425.00
    2472.702      9698.91  11715746.00
    2472.802      9596.84  11785866.00
    2472.901      9665.86  11766953.00
    2473.001      9421.77  11722914.00
    2473.101      9647.86  11763735.00
    2473.201      9724.94  11785289.00
    2473.302     10084.17  11848389.00
    2473.402     10205.29  11887238.00
    2473.502     10411.37  11904633.00
    2473.601     10535.50  11825461.00
    2473.701     10659.52  11867898.00
    2473.802     10637.55  11817005.00
    2473.902     10801.66  11813986.00
    2474.002     11201.89  11823040.00
    2474.102     11494.14  11851174.00
    2474.201     11674.35  11864301.00
    2474.301     12106.65  11909784.00
    2474.401     12001.55  11864254.00
    2474.501     12543.94  11925526.00
    2474.602     12757.10  11872572.00
    2474.701     13153.35  11851848.00
    2474.801     13154.42  11835488.00
    2474.901     13569.86  11923469.00
    2475.001     14214.33  11963121.00
    2475.101     14819.99  11988854.00
    2475.201     14994.00  11983660.00
    2475.301     15385.35  11933402.00
    2475.402     15975.98  11934348.00
    2475.502     16382.36  11954798.00
    2475.602     16971.90  11938145.00
    2475.702     17250.15  11925999.00
    2475.802     17653.55  11898845.00
    2475.902     18494.50  11884739.00
    2476.001     18507.53  11893971.00
    2476.101     19158.27  11871085.00
    2476.201     19689.48  11767036.00
    2476.301     20311.06  11522080.00
    2476.401     21196.58  11928588.00
    2476.501     22022.62  11906081.00
    2476.601     22817.44  11749085.00
    2476.701     23947.46  12026512.00
    2476.801     25488.45  11987244.00
    2476.902     27153.03  11970217.00
    2477.001     28568.26  12010687.00
    2477.101     30069.54  11970206.00
    2477.201     31911.71  11942847.00
    2477.301     32630.09  11908369.00
    2477.401     33634.85  11900813.00
    2477.502     33654.92  11920361.00
    2477.602     34299.84  11817330.00
    2477.701     33933.03  11625912.00
    2477.802     34286.09  11882174.00
    2477.902     34590.10  11816865.00
    2478.001     34525.00  11633319.00
    2478.101     34657.62  11916756.00
    2478.201     35552.29  11968637.00
    2478.302     36314.99  11984251.00
    2478.402     37107.29  11987453.00
    2478.501     39165.85  12023123.00
    2478.601     40535.91  12010392.00
    2478.701     42618.49  12035339.00
    2478.801     44864.96  12028975.00
    2478.902     47515.34  12045755.00
    2479.001     50301.66  11967980.00
    2479.101     53139.44  11951103.00
    2479.201     56692.89  11958344.00
    2479.302     60403.86  11968733.00
    2479.402     65072.62  12034412.00
    2479.501     70051.10  12137395.00
    2479.601     76074.30  12100211.00
    2479.701     81518.91  12066429.00
    2479.801     89658.22  12023551.00
    2479.902     98968.28  12018109.00
    2480.001    108840.90  12007731.00
    2480.101    122458.01  12059712.00
    2480.201    136639.89  12047272.00
    2480.301    151814.94  12056806.00
    2480.401    169283.47  12054582.00
    2480.501    186602.79  12063915.00
    2480.601    205503.03  12105919.00
    2480.701    220196.36  12039965.00
    2480.801    235368.09  12034916.00
    2480.902    248629.90  12086415.00
    2481.001    258212.21  12027714.00
    2481.101    267425.95  12011060.00
    2481.202    274438.98  12008999.00
    2481.302    280930.57  12039482.00
    2481.402    286128.15  12052981.00
    2481.501    291305.93  12099476.00
    2481.601    292752.98  12053023.00
    2481.701    293293.91  12028534.00
    2481.801    292056.93  12021921.00
    2481.902    291151.12  12042914.00
    2482.002    288429.46  12050127.00
    2482.102    281516.96  12033811.00
    2482.201    276495.34  12079947.00
    2482.301    269550.76  12108990.00
    2482.401    258646.43  12123182.00
    2482.501    248750.03  12099473.00
    2482.602    236772.70  12110861.00
    2482.702    225435.06  12164512.00
    2482.802    212537.35  12167035.00
    2482.902    199863.04  12139623.00
    2483.002    187128.77  12162202.00
    2483.101    174759.82  12175545.00
    2483.202    163704.32  12178794.00
    2483.301    153444.17  12143314.00
    2483.401    145284.86  12159419.00
    2483.501    138724.75  12156255.00
    2483.601    133051.40  12131963.00
    2483.701    130046.83  12122229.00
    2483.801    128418.14  12177987.00
    2483.901    126612.92  12195738.00
    2484.002    126661.22  12141045.00
    2484.102    126837.29  12152046.00
    2484.202    128979.59  12149592.00
    2484.302    130352.19  12126322.00
    2484.401    132824.19  12164502.00
    2484.501    136033.30  12202223.00
    2484.602    137769.29  12127138.00
    2484.702    140688.64  12127683.00
    2484.802    142878.77  12097517.00
    2484.902    143594.15  12076096.00
    2485.001    145769.11  12105599.00
    2485.102    146011.14  12136317.00
    2485.202    145203.13  12169872.00
    2485.301    143072.69  12210395.00
    2485.402    140470.93  12198352.00
    2485.502    137957.79  12164445.00
    2485.601    133297.74  12113115.00
    2485.701    128689.90  12100622.00
    2485.802    124765.11  12132910.00
    2485.902    120301.15  12092310.00
    2486.002    116898.69  12079916.00
    2486.102    113081.21  12079875.00
    2486.202    110066.17  12121789.00
    2486.301    107038.18  12068819.00
    2486.402    105228.83  12160792.00
    2486.502    103582.55  12166193.00
    2486.601    102573.96  12133249.00
    2486.702    101971.03  12168115.00
    2486.802    100681.33  12306787.00
    2486.989    101337.31  12516525.00
    2487.526    103671.29  12599283.00
    2488.588    111122.50  12394427.00
    2489.999    125727.52  12206596.00
    2491.499    133391.43  12120850.00
    2492.999    124960.66  11962313.00
    2494.499    127164.03  12029598.00
    2495.999    147316.49  11880685.00
    2497.499    167105.45  11917593.00
    2498.999    169255.11  11806589.00
    2500.499    160266.33  12200033.00
    2501.999    143785.09  12433221.00
    2503.499    129602.05  12181044.00
    2504.999    128489.77  12597650.00
    2506.500    120772.76  12411891.00
    2507.999    112990.73  12369503.00
    2509.499    111169.86  12469835.00
    2510.999    109008.18  12312011.00
    2512.499    108030.91  12169452.00
    2513.999    110287.71  12149658.00
    2515.499    114917.37  12342497.00
    2517.000    119065.88  12528904.00
    2518.499    122161.71  12696583.00
    2519.999    121534.59  12624255.00
    2521.499    120825.99  12787971.00
    2522.999    119974.15  12841504.00
    2524.499    119610.45  12852898.00
    2525.999    119592.76  12801965.00
    2527.499    118551.43  12624052.00
    2528.999    121845.29  12923117.00
    2530.499    118320.13  12632529.00
    2531.999    119715.80  12841981.00
    2533.500    117979.99  12699337.00
    2534.999    116821.09  12609200.00
    2536.499    113655.88  12071946.00
    2537.999    114405.09  12051137.00
    2539.499    117929.15  12434505.00
    2540.999    114733.55  12050809.00
    2542.499    118364.88  12247787.00
    2543.999    114697.11  11718941.00
