#XDI/1.1  GSE/2.0
# Column.1: energy eV
# Column.2: ifluor
# Column.3: i0
# Scan.end_time: 2018-02-22 17:36:25
# Scan.start_time: 2018-02-22 17:31:22
# Element.symbol:  S
# Element.edge:  K
# Mono.d_spacing:  3.13477
# Mono.name: Si 111
# Sample.formula: CaSO4.2(H2O)
# Sample.name: gypsum
# Sample.prep: powder on tape halogen-free tape
# Sample.temperature: room temperature
# Facility.Name:  APS
# Beamline.Name:  13-ID-E
# Beamline.xray_source:  3.6cm undulator
# Beamline.I0: He,  20 cm
# Beamline.If: 4-element SDD (Vortex ME-4)
# ScanParameters.ScanType: xafs
# ScanParameters.E0: 2472.000
# ScanParameters.Legend:  Start, Stop, Step, K-space, Time
# ScanParameters.Region1:    -25.000,   -10.000,     1.500  False  1.00
# ScanParameters.Region2:    -10.000,    15.000,     0.100  False  1.00
# ScanParameters.Region3:     15.000,    75.000,     1.500  False  1.00
#-------------------------
#  energy  ifluor  i0
    2446.999       291.03   9000158.00
    2448.498       329.04   9273309.00
    2449.998       332.04  10326097.00
    2451.498       408.06  10979894.00
    2452.998       377.05  11387389.00
    2454.498       402.06  11911470.00
    2455.999       451.06  11968455.00
    2457.499       445.06  12085355.00
    2458.999       449.06  12101239.00
    2460.412       499.07  11808405.00
    2461.475       487.06  11797849.00
    2462.012       501.06  11695822.00
    2462.200       468.06  11674800.00
    2462.301       445.06  11654698.00
    2462.401       520.06  11659643.00
    2462.502       491.06  11627612.00
    2462.601       524.07  11649650.00
    2462.702       530.07  11613850.00
    2462.802       506.06  11580475.00
    2462.902       524.07  11626405.00
    2463.001       542.07  11655606.00
    2463.102       527.07  11620224.00
    2463.202       509.06  11594988.00
    2463.302       535.07  11580849.00
    2463.402       517.07  11597941.00
    2463.502       497.06  11581838.00
    2463.601       523.07  11518625.00
    2463.702       545.07  11515889.00
    2463.802       586.07  11527119.00
    2463.902       513.06  11532946.00
    2464.001       521.07  11531048.00
    2464.101       560.07  11526445.00
    2464.201       547.07  11474880.00
    2464.301       519.06  11471726.00
    2464.401       575.07  11443647.00
    2464.501       580.07  11447474.00
    2464.601       580.07  11421951.00
    2464.702       547.07  11428822.00
    2464.801       586.07  11411030.00
    2464.902       619.08  11409467.00
    2465.002       617.08  11399722.00
    2465.101       603.07  11345148.00
    2465.201       555.07  11377005.00
    2465.301       593.08  11393521.00
    2465.401       617.08  11336977.00
    2465.501       572.07  11375254.00
    2465.602       662.08  11380058.00
    2465.701       664.08  11364201.00
    2465.801       611.08  11397478.00
    2465.901       619.08  11354822.00
    2466.001       595.07  11328172.00
    2466.101       618.08  11324960.00
    2466.201       634.08  11380054.00
    2466.302       609.07  11370024.00
    2466.401       663.08  11292556.00
    2466.501       625.08  11364157.00
    2466.601       667.09  11315752.00
    2466.701       719.09  11300721.00
    2466.801       662.08  11299964.00
    2466.901       657.08  11388902.00
    2467.001       712.09  11364782.00
    2467.101       724.09  11445464.00
    2467.201       736.10  11444366.00
    2467.301       696.09  11390641.00
    2467.401       747.10  11420903.00
    2467.501       720.09  11380671.00
    2467.601       727.09  11416155.00
    2467.701       801.10  11406353.00
    2467.801       791.10  11483577.00
    2467.902       835.11  11470411.00
    2468.002       793.10  11472246.00
    2468.101       783.10  11480868.00
    2468.202       842.11  11517177.00
    2468.301       868.12  11547016.00
    2468.401       912.12  11593240.00
    2468.501       958.13  11554655.00
    2468.602       943.13  11548930.00
    2468.702       948.13  11602364.00
    2468.802       939.13  11597935.00
    2468.902      1018.14  11559104.00
    2469.001      1044.15  11585139.00
    2469.101      1105.15  11538431.00
    2469.201      1190.17  11592721.00
    2469.301      1276.19  11631712.00
    2469.401      1289.19  11585959.00
    2469.501      1448.22  11551535.00
    2469.601      1556.24  11503672.00
    2469.701      1781.28  11498951.00
    2469.802      1927.32  11578023.00
    2469.902      2077.34  11564993.00
    2470.002      2235.39  11544650.00
    2470.101      2416.42  11438190.00
    2470.201      2531.45  11450615.00
    2470.301      2618.47  11578848.00
    2470.401      2713.49  11558785.00
    2470.501      2683.49  11494417.00
    2470.602      2772.51  11536460.00
    2470.701      2867.54  11619283.00
    2470.801      3063.59  11570720.00
    2470.901      3229.64  11614465.00
    2471.001      3445.71  11609611.00
    2471.101      3484.71  11565543.00
    2471.201      3873.84  11563219.00
    2471.301      4078.89  11553991.00
    2471.401      4219.94  11611480.00
    2471.501      4276.96  11633922.00
    2471.601      4400.00  11627995.00
    2471.701      4352.02  11615072.00
    2471.802      4414.01  11576931.00
    2471.902      4255.97  11616827.00
    2472.001      4324.98  11634275.00
    2472.101      4116.93  11636990.00
    2472.201      3971.88  11649412.00
    2472.301      3920.84  11690512.00
    2472.401      3918.86  11671489.00
    2472.502      3866.84  11656226.00
    2472.602      3668.78  11685954.00
    2472.702      3581.76  11672139.00
    2472.802      3445.71  11729038.00
    2472.901      3417.70  11717166.00
    2473.001      3468.71  11803262.00
    2473.101      3406.69  11829360.00
    2473.201      3427.71  11785363.00
    2473.301      3484.73  11824378.00
    2473.401      3438.73  11771808.00
    2473.501      3484.71  11756418.00
    2473.602      3465.72  11752908.00
    2473.701      3496.72  11714586.00
    2473.801      3537.73  11749929.00
    2473.901      3666.77  11774223.00
    2474.001      3737.80  11735679.00
    2474.101      3857.86  11745529.00
    2474.202      3859.84  11750031.00
    2474.302      3924.87  11776882.00
    2474.401      4021.88  11739609.00
    2474.501      4104.92  11783167.00
    2474.601      4225.95  11744421.00
    2474.701      4303.99  11768873.00
    2474.802      4455.06  11785099.00
    2474.901      4640.11  11783634.00
    2475.001      4606.07  11754062.00
    2475.102      4843.17  11787550.00
    2475.202      4981.24  11756190.00
    2475.302      5037.25  11731209.00
    2475.401      5227.33  11730625.00
    2475.501      5446.45  11826893.00
    2475.602      5493.45  11870015.00
    2475.701      5593.48  11832737.00
    2475.802      5765.57  11762640.00
    2475.902      5835.56  11837568.00
    2476.002      6087.70  11857721.00
    2476.101      6161.72  11784188.00
    2476.201      6370.79  11744310.00
    2476.302      6518.87  11501998.00
    2476.402      6623.95  11887562.00
    2476.502      7026.14  11834429.00
    2476.602      7142.15  11670021.00
    2476.702      7556.46  11945436.00
    2476.801      7989.64  11951128.00
    2476.901      8320.86  11943368.00
    2477.002      8792.16  11966725.00
    2477.102      9417.53  11947866.00
    2477.201      9706.69  11900321.00
    2477.301      9797.78  11890769.00
    2477.402     10099.90  11857108.00
    2477.502     10345.12  11844709.00
    2477.602     10162.94  11821338.00
    2477.702     10251.96  11634163.00
    2477.801     10217.01  11814895.00
    2477.901      9935.78  11662600.00
    2478.002      9956.78  11510582.00
    2478.102     10059.91  11894853.00
    2478.202     10126.97  12023340.00
    2478.301     10136.00  12011327.00
    2478.401     10733.37  12050074.00
    2478.502     10778.41  11991751.00
    2478.602     11388.81  11958111.00
    2478.702     11751.05  11922024.00
    2478.802     12201.47  11940964.00
    2478.902     12997.10  11991129.00
    2479.002     13700.65  12004354.00
    2479.102     14697.53  12023983.00
    2479.201     15458.34  11959744.00
    2479.302     16626.45  11961725.00
    2479.402     17864.62  11973007.00
    2479.502     19180.11  11932014.00
    2479.602     20982.28  11953431.00
    2479.701     22879.82  11972986.00
    2479.801     24957.83  12028475.00
    2479.901     28185.85  12066967.00
    2480.002     31767.18  12034784.00
    2480.102     35623.77  12038238.00
    2480.202     40861.09  12065557.00
    2480.302     46779.35  12058292.00
    2480.402     53694.03  12057873.00
    2480.501     61604.31  12074908.00
    2480.601     70112.92  12074157.00
    2480.702     78622.50  12021523.00
    2480.801     86518.83  12029197.00
    2480.901     94588.03  11995297.00
    2481.001    101543.10  12011553.00
    2481.102    108536.84  12016688.00
    2481.202    115506.32  12102095.00
    2481.302    120351.48  12115019.00
    2481.401    125191.81  12047486.00
    2481.501    126116.37  11891301.00
    2481.601    132268.37  12109605.00
    2481.702    133009.66  12114030.00
    2481.802    133083.53  12105182.00
    2481.902    131479.86  12099091.00
    2482.002    130166.85  12195065.00
    2482.102    127133.76  12210468.00
    2482.202    122733.65  12202225.00
    2482.301    116833.43  12187319.00
    2482.402    110265.90  12179910.00
    2482.501    102704.89  12197799.00
    2482.601     95710.76  12193144.00
    2482.701     87175.52  12195598.00
    2482.802     80098.32  12171613.00
    2482.902     72774.19  12154185.00
    2483.002     66832.60  12198044.00
    2483.102     60701.21  12215235.00
    2483.201     55478.41  12180302.00
    2483.301     51298.84  12177264.00
    2483.401     48139.88  12230603.00
    2483.502     45180.06  12269543.00
    2483.602     43151.82  12247758.00
    2483.701     41646.14  12217623.00
    2483.801     40896.65  12201757.00
    2483.901     40380.55  12221199.00
    2484.001     39990.31  12211373.00
    2484.101     40426.55  12264530.00
    2484.201     40583.81  12198133.00
    2484.302     41209.31  12184310.00
    2484.401     41910.74  12171403.00
    2484.501     42469.50  12194685.00
    2484.601     43469.87  12237897.00
    2484.701     44145.52  12243314.00
    2484.801     44571.62  12221072.00
    2484.901     44916.53  12199295.00
    2485.002     44977.60  12180182.00
    2485.102     45017.70  12189798.00
    2485.202     44851.08  12217047.00
    2485.302     44255.60  12220991.00
    2485.402     43193.19  12172475.00
    2485.501     41869.84  12218278.00
    2485.601     40697.16  12267804.00
    2485.702     38459.28  12245814.00
    2485.801     36917.46  12189779.00
    2485.901     36014.72  12251650.00
    2486.002     33984.59  12253727.00
    2486.102     33288.13  12238539.00
    2486.202     31848.17  12197660.00
    2486.302     31068.12  12241759.00
    2486.401     30271.72  12220722.00
    2486.501     29033.43  12152536.00
    2486.601     29000.60  12208235.00
    2486.701     28450.57  12169797.00
    2486.801     28254.27  12228149.00
    2486.989     28263.59  12507213.00
    2487.526     29391.39  12502716.00
    2488.588     32292.60  12258124.00
    2490.000     38836.20  12098630.00
    2491.500     41798.11  12228758.00
    2492.999     38768.22  12035765.00
    2494.499     40517.05  12090581.00
    2495.999     45882.41  11946664.00
    2497.499     51778.96  11965009.00
    2498.999     53403.16  12048946.00
    2500.499     48569.99  12179119.00
    2502.000     44534.01  12402206.00
    2503.499     41620.57  12478888.00
    2504.999     39522.63  12596201.00
    2506.499     36408.32  12501605.00
    2507.999     33140.07  12346073.00
    2509.499     32915.80  12536361.00
    2510.999     32912.47  12440281.00
    2512.499     31963.48  12070497.00
    2513.999     32994.01  12156772.00
    2515.499     34256.46  12356857.00
    2516.999     35666.39  12711836.00
    2518.499     34905.83  12545001.00
    2519.999     34893.75  12714321.00
    2521.499     34158.44  12697078.00
    2522.999     34132.22  12588649.00
    2524.499     34964.67  12816000.00
    2525.999     34307.47  12667798.00
    2527.499     34820.73  12787173.00
    2529.000     34734.07  12591997.00
    2530.500     35007.79  12789783.00
    2531.999     34452.77  12539691.00
    2533.499     34124.22  12447596.00
    2534.999     34453.72  12534605.00
    2536.499     34612.77  12327031.00
    2537.999     32894.35  11853976.00
    2539.499     33015.08  11786860.00
    2540.999     33565.96  11938576.00
    2542.499     32579.96  11530512.00
    2544.000     33499.68  11669356.00
