#XDI/1.1  GSE/2.0
# Column.1: energy eV
# Column.2: ifluor
# Column.3: i0
# Scan.end_time: 2018-02-22 17:53:37
# Scan.start_time: 2018-02-22 17:48:34
# Element.symbol:  S
# Element.edge:  K
# Mono.d_spacing:  3.13477
# Mono.name: Si 111
# Sample.formula: CaSO4.2(H2O)
# Sample.name: gypsum
# Sample.prep: powder on tape halogen-free tape
# Sample.temperature: room temperature
# Facility.Name:  APS
# Beamline.Name:  13-ID-E
# Beamline.xray_source:  3.6cm undulator
# Beamline.I0: He, 200 cm
# Beamline.If: 4-element SDD (Vortex ME-4)
# ScanParameters.ScanType: xafs
# ScanParameters.E0: 2472.000
# ScanParameters.Legend:  Start, Stop, Step, K-space, Time
# ScanParameters.Region1:    -25.000,   -10.000,     1.500  False  1.00
# ScanParameters.Region2:    -10.000,    15.000,     0.100  False  1.00
# ScanParameters.Region3:     15.000,    75.000,     1.500  False  1.00
#-------------------------
#  energy  ifluor  i0
    2446.999       971.21   8920918.00
    2448.498      1020.22   9427251.00
    2449.998      1078.24   9949366.00
    2451.499      1236.30  10466582.00
    2452.998      1353.35  10912505.00
    2454.498      1381.36  11453160.00
    2455.998      1477.39  11751631.00
    2457.499      1594.42  11943353.00
    2458.999      1709.44  12126114.00
    2460.412      1709.43  11881765.00
    2461.475      1823.43  11724541.00
    2462.012      1905.47  11589524.00
    2462.200      1923.46  11592405.00
    2462.301      1823.44  11599374.00
    2462.401      1901.46  11524696.00
    2462.501      1928.46  11625329.00
    2462.602      2050.51  11648408.00
    2462.702      1886.45  11634350.00
    2462.801      1998.48  11627614.00
    2462.901      1953.48  11657390.00
    2463.002      1962.48  11675992.00
    2463.102      2006.49  11669007.00
    2463.202      2011.48  11619293.00
    2463.302      2040.49  11596593.00
    2463.401      1974.47  11647891.00
    2463.502      2056.50  11647127.00
    2463.602      1989.48  11599390.00
    2463.702      2048.49  11544940.00
    2463.802      2065.51  11572130.00
    2463.902      2015.48  11583761.00
    2464.002      2119.50  11516389.00
    2464.102      2081.49  11556123.00
    2464.202      2120.51  11570517.00
    2464.301      2200.53  11521686.00
    2464.401      2140.50  11441917.00
    2464.502      2118.50  11500787.00
    2464.601      2149.50  11512153.00
    2464.701      2135.51  11453848.00
    2464.801      2119.51  11391564.00
    2464.901      2213.52  11353278.00
    2465.002      2145.49  11294407.00
    2465.102      2278.52  11275655.00
    2465.202      2308.53  11246522.00
    2465.302      2313.55  11251154.00
    2465.401      2256.52  11329613.00
    2465.501      2340.53  11232200.00
    2465.602      2505.59  11309229.00
    2465.702      2360.56  11244494.00
    2465.802      2509.59  11336154.00
    2465.902      2442.58  11372301.00
    2466.001      2453.58  11417754.00
    2466.101      2487.59  11387017.00
    2466.201      2564.61  11393580.00
    2466.301      2588.62  11411414.00
    2466.401      2531.60  11342229.00
    2466.502      2554.61  11371848.00
    2466.602      2673.64  11347356.00
    2466.702      2565.61  11343107.00
    2466.801      2561.60  11294564.00
    2466.901      2770.66  11301632.00
    2467.002      2735.67  11359341.00
    2467.102      2731.66  11321155.00
    2467.202      2854.69  11332975.00
    2467.301      2807.68  11238270.00
    2467.401      2831.69  11320822.00
    2467.501      2943.72  11294039.00
    2467.601      3042.74  11349240.00
    2467.701      3123.77  11353551.00
    2467.801      3219.81  11396643.00
    2467.901      3295.85  11450025.00
    2468.001      3270.85  11463562.00
    2468.102      3399.87  11487678.00
    2468.202      3486.92  11522193.00
    2468.302      3610.95  11517787.00
    2468.402      3605.95  11422953.00
    2468.502      3829.04  11465451.00
    2468.602      3860.06  11532243.00
    2468.702      3967.09  11508439.00
    2468.802      4162.18  11553493.00
    2468.902      4300.24  11584775.00
    2469.001      4483.27  11568999.00
    2469.101      4839.43  11527705.00
    2469.201      5007.51  11548310.00
    2469.301      5536.72  11517312.00
    2469.401      5874.87  11473068.00
    2469.501      6793.34  11577516.00
    2469.601      7485.71  11569765.00
    2469.701      8573.36  11563339.00
    2469.801      9490.91  11518982.00
    2469.901     10641.66  11526239.00
    2470.002     11221.22  11566540.00
    2470.102     12067.72  11520792.00
    2470.202     12369.96  11468473.00
    2470.302     12765.29  11528327.00
    2470.401     13147.67  11567570.00
    2470.502     13340.84  11576783.00
    2470.601     13616.94  11529218.00
    2470.701     14159.43  11507581.00
    2470.801     15068.29  11556380.00
    2470.902     15995.17  11616544.00
    2471.002     16889.22  11613813.00
    2471.102     18118.49  11561780.00
    2471.201     19582.16  11601752.00
    2471.301     20672.39  11564414.00
    2471.401     21391.32  11544882.00
    2471.502     22312.44  11538805.00
    2471.601     22739.07  11543462.00
    2471.701     22831.18  11528279.00
    2471.801     22863.20  11585188.00
    2471.901     22768.14  11668778.00
    2472.001     22586.99  11664881.00
    2472.101     22060.22  11646359.00
    2472.201     21303.29  11612496.00
    2472.301     20566.44  11606016.00
    2472.401     20118.73  11694683.00
    2472.501     19358.90  11708181.00
    2472.601     18679.05  11690083.00
    2472.701     18120.40  11672616.00
    2472.801     17596.81  11690866.00
    2472.902     17048.21  11691186.00
    2473.001     16650.78  11666009.00
    2473.101     16787.91  11670133.00
    2473.202     16673.81  11669669.00
    2473.302     16750.79  11667394.00
    2473.402     16587.71  11600957.00
    2473.502     16964.06  11722608.00
    2473.601     17122.32  11723352.00
    2473.702     17154.34  11741796.00
    2473.802     17260.42  11778702.00
    2473.901     17537.75  11788077.00
    2474.001     17918.20  11839374.00
    2474.101     17999.23  11787569.00
    2474.201     18602.91  11803276.00
    2474.301     18962.24  11833270.00
    2474.401     19374.81  11749451.00
    2474.502     19819.34  11886498.00
    2474.602     20258.86  11850251.00
    2474.702     20450.14  11850667.00
    2474.802     21118.95  11920720.00
    2474.901     21660.70  11964224.00
    2475.001     22061.11  11966011.00
    2475.102     22902.36  11944290.00
    2475.201     23252.70  11913283.00
    2475.301     23924.71  11977048.00
    2475.402     25012.06  11966932.00
    2475.502     25290.60  11999154.00
    2475.602     26204.05  11990496.00
    2475.701     26306.94  11941477.00
    2475.801     26757.93  11939207.00
    2475.901     27422.81  11961516.00
    2476.002     27826.36  11947823.00
    2476.102     28456.25  11880923.00
    2476.201     28716.72  11853880.00
    2476.301     29417.44  11515488.00
    2476.402     30056.21  11921867.00
    2476.501     31294.07  11945028.00
    2476.601     32240.76  11758547.00
    2476.701     33951.10  12008300.00
    2476.801     35728.58  11980218.00
    2476.901     37357.57  11999225.00
    2477.001     39374.22  11983380.00
    2477.102     41359.42  11997618.00
    2477.201     42043.26  11984225.00
    2477.301     44114.98  12062656.00
    2477.402     44414.75  12096848.00
    2477.502     45479.48  12145945.00
    2477.601     44924.66  12089182.00
    2477.701     44354.04  11897063.00
    2477.801     44464.75  12098369.00
    2477.901     43786.15  12041709.00
    2478.002     43334.45  11879837.00
    2478.102     43073.65  12168193.00
    2478.201     43157.69  12159862.00
    2478.301     43814.01  12190086.00
    2478.401     44580.32  12217310.00
    2478.501     45705.51  12156905.00
    2478.601     46653.20  12160903.00
    2478.702     48168.51  12125672.00
    2478.802     50666.45  12097986.00
    2478.901     52736.07  12093562.00
    2479.001     55384.26  12072916.00
    2479.102     58046.59  12003620.00
    2479.201     60867.04  12029159.00
    2479.301     64487.40  12072808.00
    2479.401     69110.46  12116664.00
    2479.502     73497.82  12103254.00
    2479.602     79108.14  12067683.00
    2479.702     84803.85  12106171.00
    2479.802     92518.25  12121966.00
    2479.902    100685.04  12095591.00
    2480.002    111017.70  12164988.00
    2480.101    123068.23  12191308.00
    2480.201    135832.06  12176395.00
    2480.301    151272.40  12215242.00
    2480.402    167070.36  12215358.00
    2480.502    183413.03  12194396.00
    2480.601    200022.52  12167541.00
    2480.701    214568.94  12134496.00
    2480.801    228640.65  12141403.00
    2480.901    240918.86  12148119.00
    2481.001    252518.51  12148273.00
    2481.101    261570.32  12149768.00
    2481.201    270444.19  12178829.00
    2481.301    276504.32  12197445.00
    2481.401    281097.11  12184828.00
    2481.501    284679.55  12157960.00
    2481.601    288007.23  12214067.00
    2481.701    289029.03  12237744.00
    2481.802    290867.35  12260442.00
    2481.902    288745.19  12248305.00
    2482.001    284960.91  12222393.00
    2482.101    279974.80  12235578.00
    2482.201    274527.81  12255707.00
    2482.301    266446.45  12245362.00
    2482.401    257300.72  12245155.00
    2482.501    246171.02  12234577.00
    2482.602    234099.56  12215628.00
    2482.702    221062.90  12236874.00
    2482.802    209543.92  12252996.00
    2482.901    196857.17  12283967.00
    2483.002    184915.32  12280808.00
    2483.101    174513.60  12328983.00
    2483.201    163286.70  12349426.00
    2483.301    154027.23  12351718.00
    2483.401    146099.48  12342963.00
    2483.502    140538.94  12423993.00
    2483.602    135449.63  12357244.00
    2483.701    130939.59  12317139.00
    2483.801    128864.93  12309955.00
    2483.901    128542.96  12333257.00
    2484.001    128954.49  12359965.00
    2484.101    129009.97  12333515.00
    2484.202    130565.14  12302609.00
    2484.302    131243.12  12273381.00
    2484.402    133642.52  12242383.00
    2484.502    136461.47  12240350.00
    2484.601    138435.72  12234300.00
    2484.701    140118.38  12202933.00
    2484.802    142628.49  12206190.00
    2484.902    144234.60  12237110.00
    2485.002    145587.89  12229551.00
    2485.102    146089.15  12268897.00
    2485.202    144882.79  12246899.00
    2485.302    142591.52  12230572.00
    2485.401    140355.93  12288664.00
    2485.501    136946.30  12281004.00
    2485.602    132478.09  12246297.00
    2485.702    128753.06  12216036.00
    2485.801    123669.75  12170129.00
    2485.901    120080.66  12199079.00
    2486.001    116444.61  12228813.00
    2486.101    113116.66  12169838.00
    2486.201    109834.43  12132611.00
    2486.301    107056.14  12112940.00
    2486.401    104071.43  12055087.00
    2486.502    103661.31  12252707.00
    2486.601    101867.27  12243188.00
    2486.701    101790.91  12272161.00
    2486.801    101541.94  12415118.00
    2486.989    101625.30  12621618.00
    2487.527    103292.93  12715475.00
    2488.588    110485.91  12585404.00
    2490.000    125100.88  12390786.00
    2491.499    134220.55  12385915.00
    2492.999    127497.76  12073892.00
    2494.499    127875.84  12151787.00
    2495.999    144254.85  12084626.00
    2497.499    160549.94  12065906.00
    2498.998    165444.38  12188102.00
    2500.499    153734.67  12273316.00
    2501.999    139724.58  12384602.00
    2503.499    128185.26  12267922.00
    2504.999    126094.42  12674580.00
    2506.499    118445.52  12602112.00
    2507.999    110237.66  12362359.00
    2509.499    109260.79  12489990.00
    2510.999    110840.56  12733684.00
    2512.499    106720.57  12186075.00
    2513.999    109913.07  12409226.00
    2515.499    112211.36  12514071.00
    2516.999    116953.56  12709270.00
    2518.499    117539.21  12642623.00
    2519.999    117725.44  12794025.00
    2521.499    117112.06  12856906.00
    2522.999    115494.78  12752248.00
    2524.499    116403.43  12930472.00
    2525.999    115518.36  12821168.00
    2527.499    117441.09  12972812.00
    2528.999    118496.83  13013794.00
    2530.499    116757.59  12929173.00
    2532.000    116697.87  12971498.00
    2533.500    114375.79  12812598.00
    2534.999    115064.44  12778918.00
    2536.499    113053.27  12519894.00
    2538.000    112085.28  12317576.00
    2539.500    110407.42  12156720.00
    2540.999    110961.78  12050419.00
    2542.500    111757.19  12005406.00
    2544.000    110990.47  11765139.00
