#XDI/1.1  GSE/1.0
# Column.1: energy eV
# Column.2: ifluor
# Column.3: i0
# Scan.end_time: 2014-03-07 11:57:44
# Scan.start_time: 2014-03-07 11:51:11
# Element.symbol:  S
# Element.edge:  K
# Mono.d_spacing:  3.13477
# Mono.name: Si 111
# Sample.formula: FexSx
# Sample.name: iron sulfide, unknown
# Sample.prep: powder on halogen-free tape
# Sample.temperature: room temperature
# Facility.Name:  APS
# Beamline.Name:  13-ID-E
# Beamline.xray_source:  3.6cm undulator
# Beamline.I0: He,  20 cm
# Beamline.If: 4-element SDD (Vortex ME-4)
# ScanParameters.ScanType: xafs
# ScanParameters.E0: 2472.000
# ScanParameters.Start: Scan.Member: Value
# ScanParameters.E0: 2472.00
# ScanParameters.Legend: Start       Stop       Step       Npts       Time   Kspace?
# ScanParameters.Region1: -20.000    -5.0000     2.5000     7.0000     1.0000   0
# ScanParameters.Region2: -5.0000     20.000    0.20000     126.00     1.0000   0
# ScanParameters.Region3: 20.000     120.00     1.0000     101.00     1.0000   0
#-------------------------
#  energy  ifluor  i0
    2452.000      7928.4738     40304.00
    2454.501      9771.5397     48204.00
    2457.000      9708.5780     48294.00
    2459.500     10245.3234     48927.00
    2462.000     11390.1013     49796.00
    2464.500     13628.9626     49731.00
    2467.000     20513.8585     50954.00
    2467.200     20498.7600     49180.00
    2467.400     20832.1850     48177.00
    2467.600     22148.1936     48360.00
    2467.800     23586.6537     47978.00
    2468.000     24819.8615     48096.00
    2468.200     26847.9639     48237.00
    2468.401     28934.7322     48637.00
    2468.600     31464.1465     48519.00
    2468.800     34312.4104     47788.00
    2469.000     37466.9913     47611.00
    2469.200     41749.5460     47691.00
    2469.400     47646.1551     48087.00
    2469.600     54542.6973     47640.00
    2469.800     63759.7730     47755.00
    2470.000     76341.1245     47685.00
    2470.200     92315.5646     47511.00
    2470.400    115487.3559     47152.00
    2470.600    146066.2522     47851.00
    2470.800    176859.2020     47491.00
    2471.000    203139.0184     47999.00
    2471.201    217952.5836     47678.00
    2471.401    225310.1203     47363.00
    2471.600    225172.1845     47003.00
    2471.801    222537.0876     47065.00
    2472.000    219651.8366     47013.00
    2472.200    214969.2402     47350.00
    2472.399    209686.2231     46993.00
    2472.600    202775.0282     46883.00
    2472.801    196428.1775     46850.00
    2473.000    188138.3314     47192.00
    2473.200    180169.1128     47571.00
    2473.400    169896.5209     47234.00
    2473.600    159669.5974     47207.00
    2473.801    148797.5138     47171.00
    2474.000    137196.3116     46903.00
    2474.200    127544.5746     47190.00
    2474.400    118137.7655     47039.00
    2474.601    111532.7671     47150.00
    2474.800    106551.3665     46892.00
    2475.000    102191.7402     47092.00
    2475.200     98922.2131     46931.00
    2475.400     96830.9495     46970.00
    2475.600     96200.9683     47118.00
    2475.800     97222.0668     47011.00
    2476.000     98598.7260     46658.00
    2476.200     94816.1230     41203.00
    2476.400    107706.3911     44055.00
    2476.601    124905.1138     46332.00
    2476.800    139457.2315     47420.00
    2477.000    148015.3307     47685.00
    2477.199    152898.0249     47509.00
    2477.400    154754.4135     47473.00
    2477.601    139336.4095     40617.00
    2477.800    150056.9866     44559.00
    2478.000    159928.5085     47862.00
    2478.200    163852.3869     48395.00
    2478.400    165706.2571     47796.00
    2478.600    127302.6536     30827.00
    2478.800    151592.8278     42211.00
    2479.001    170705.3569     47735.00
    2479.200    175051.5077     48857.00
    2479.400    175572.0572     49364.00
    2479.601    175961.4242     49327.00
    2479.800    175057.5568     49459.00
    2480.000    175463.6983     49786.00
    2480.200    175149.4554     50232.00
    2480.400    176056.3752     50487.00
    2480.600    175228.9837     50572.00
    2480.800    174940.6492     50884.00
    2481.000    176119.9717     50869.00
    2481.200    177309.4702     51179.00
    2481.400    180403.9925     51371.00
    2481.601    181576.3095     51342.00
    2481.800    183598.5040     51691.00
    2482.000    184926.9193     51770.00
    2482.201    183353.6538     51483.00
    2482.399    185156.7841     52366.00
    2482.600    182281.8955     51796.00
    2482.800    183008.5131     52309.00
    2483.000    180939.7746     52657.00
    2483.200    181571.4885     52729.00
    2483.401    180622.7650     52758.00
    2483.601    180837.0887     52865.00
    2483.800    181733.1840     53234.00
    2484.000    179937.6983     53013.00
    2484.200    180603.3369     53329.00
    2484.400    180264.2773     53425.00
    2484.601    180528.6858     53519.00
    2484.800    181298.6987     54014.00
    2485.001    183143.5072     54288.00
    2485.200    183312.4034     54255.00
    2485.400    183095.5513     54146.00
    2485.600    184095.3964     54230.00
    2485.801    184252.0316     54568.00
    2486.000    185508.1755     54759.00
    2486.200    186972.3473     54871.00
    2486.400    185578.5085     54895.00
    2486.600    185569.6254     54971.00
    2486.800    185657.8922     55288.00
    2487.000    184861.7977     55249.00
    2487.200    185386.8435     55050.00
    2487.400    185302.6580     55150.00
    2487.600    185504.5788     55435.00
    2487.800    184169.7984     55636.00
    2488.000    185037.0253     55484.00
    2488.200    184383.7601     55594.00
    2488.400    184329.3637     55857.00
    2488.601    185481.5421     55759.00
    2488.800    184968.4309     55655.00
    2489.000    185007.2575     55465.00
    2489.200    186133.0540     55690.00
    2489.400    186194.0826     55981.00
    2489.600    186667.4672     56184.00
    2489.800    187299.6552     56192.00
    2490.000    187117.4325     56136.00
    2490.201    188430.9572     55815.00
    2490.400    188607.9146     55903.00
    2490.600    189036.9508     56191.00
    2490.800    189397.1057     56144.00
    2491.000    188723.0607     56338.00
    2491.200    188565.6968     56073.00
    2491.400    189472.5974     56503.00
    2491.599    189145.9445     56014.00
    2491.800    188897.4591     56268.00
    2492.001    189070.6704     56484.00
    2493.000    189264.3164     57026.00
    2493.999    188696.5446     56747.00
    2495.000    186283.3135     56430.00
    2496.001    184523.6894     55997.00
    2497.000    181856.0365     55279.00
    2498.000    179773.9434     54769.00
    2499.000    176087.6785     53786.00
    2500.000    173902.8003     53712.00
    2501.001    171833.3844     53383.00
    2502.000    171890.6802     53160.00
    2503.001    173214.7850     53349.00
    2504.000    177356.0461     54661.00
    2505.000    179861.0400     54730.00
    2506.000    181418.8397     55000.00
    2507.000    183569.2350     55562.00
    2508.000    185176.5920     56036.00
    2509.000    185874.4234     55993.00
    2510.000    187616.8715     56618.00
    2511.000    188794.0965     56386.00
    2512.001    188064.8198     55869.00
    2513.000    194243.6303     56835.00
    2514.000    198806.7663     57148.00
    2515.000    199906.4283     56749.00
    2516.000    201341.3908     56572.00
    2517.000    202874.1776     56254.00
    2518.000    204548.4784     56403.00
    2519.000    202750.9046     56080.00
    2520.000    200931.0690     55407.00
    2521.000    199121.1712     55065.00
    2522.000    196006.6156     54316.00
    2523.000    194594.3411     53870.00
    2524.000    192714.7100     53294.00
    2525.000    191277.8945     53098.00
    2526.000    188162.6458     52324.00
    2527.000    185753.0733     51791.00
    2528.000    182147.8056     50962.00
    2529.000    182052.0855     51140.00
    2530.000    181063.9959     51239.00
    2531.000    181091.7115     51394.00
    2532.000    182137.3427     51897.00
    2533.000    183989.0275     52692.00
    2534.000    183870.4582     52418.00
    2535.000    181506.3498     51600.00
    2536.000    183921.2219     52175.00
    2537.001    189414.0066     54071.00
    2538.000    191899.0918     54990.00
    2539.000    192470.6207     55130.00
    2540.000    194192.6756     54702.00
    2541.000    194188.5895     54558.00
    2542.000    194227.3693     54246.00
    2543.000    196651.7707     54646.00
    2544.000    197111.0323     54565.00
    2545.000    195872.3945     53985.00
    2546.000    192938.2775     53127.00
    2547.000    191769.7286     52377.00
    2548.000    189668.5919     51357.00
    2549.000    187219.4290     50663.00
    2550.000    184840.9924     49330.00
    2550.999    181445.8357     48112.00
    2552.000    178687.4036     47104.00
    2553.000    178546.6276     46593.00
    2554.000    179526.6222     46516.00
    2555.000    180002.5053     46070.00
    2556.000    180197.3770     45736.00
    2557.000    183188.3437     46333.00
    2558.000    182216.2607     45869.00
    2559.000    179151.8901     44822.00
    2560.000    179386.1985     44705.00
    2561.000    180143.4334     44599.00
    2562.000    177266.3563     43764.00
    2563.000    180570.1688     44735.00
    2564.000    179565.0365     44293.00
    2565.000    179810.2290     44368.00
    2566.000    182299.7338     44904.00
    2567.000    174696.5701     42811.00
    2568.000    176838.5898     43265.00
    2569.000    173413.7954     42234.00
    2570.000    172235.5356     41711.00
    2571.000    171184.2142     41463.00
    2572.000    162528.9590     39316.00
    2573.000    162335.0947     39235.00
    2573.999    157382.2069     37986.00
    2575.000    149241.7805     35980.00
    2575.999    148732.9288     35610.00
    2577.000    144979.7247     34642.00
    2578.000    140222.0956     33394.00
    2579.000    135857.3787     32256.00
    2580.000    135119.6316     31934.00
    2581.000    133191.1082     31527.00
    2582.000    126480.4643     29784.00
    2583.000    129109.6874     30419.00
    2584.001    129421.6893     30434.00
    2585.000    131920.4819     30984.00
    2586.000    130613.8733     30929.00
    2587.000    131290.7219     30524.00
    2588.000    130166.2500     30335.00
    2589.000    129716.4591     29777.00
    2590.001    127545.0608     29161.00
    2591.000    123728.5503     27944.00
    2592.000    124596.2590     28325.00
