#XDI/1.1  GSE/1.0
# Column.1: energy eV
# Column.2: ifluor
# Column.3: i0
# Scan.end_time: 2013-07-29 18:51:23
# Scan.start_time: 2013-07-29 18:41:37
# Element.symbol:  S
# Element.edge:  K
# Mono.d_spacing:  3.13477
# Mono.name: Si 111
# Sample.formula: KFe3+3(OH)6(SO4)2
# Sample.name: jarosite
# Sample.prep: powder on halogen-free tape
# Sample.temperature: room temperature
# Facility.Name:  APS
# Beamline.Name:  13-ID-E
# Beamline.xray_source:  3.6cm undulator
# Beamline.I0: He,  20 cm
# Beamline.If: 4-element SDD (Vortex ME-4)
# ScanParameters.ScanType: xafs
# ScanParameters.E0: 2472.000
# ScanParameters.Start: Scan.Member: Value
# ScanParameters.E0: 2472.00
# ScanParameters.Legend: Start       Stop       Step       Npts       Time   Kspace?
# ScanParameters.Region1: 2450.0     2468.0     1.0000     19.000     2.0000   0
# ScanParameters.Region2: 2468.0     2500.0    0.20000     161.00     2.0000   0
# ScanParameters.Region3: 2500.0     2550.0     1.0000     51.000     2.0000   0
#-------------------------
#  energy  ifluor  i0
    2450.000     18483.5160    311012.00
    2451.001     19029.1750    312628.00
    2452.000     19505.4587    314796.00
    2453.000     19231.1417    319922.00
    2454.000     19336.9818    325094.00
    2455.001     19280.2121    327825.00
    2456.001     19251.7787    329797.00
    2457.000     19700.7610    333165.00
    2458.000     19553.2982    336532.00
    2459.000     19707.7168    339272.00
    2460.000     19803.0812    340948.00
    2461.000     19427.9281    343175.00
    2462.001     19859.5663    344052.00
    2463.001     19266.6109    346379.00
    2464.000     19469.6934    348105.00
    2465.000     19490.4738    348129.00
    2466.000     19805.4915    350078.00
    2467.000     19880.1928    350488.00
    2468.000     19179.2153    354369.00
    2468.200     20028.2354    354825.00
    2468.401     20061.7486    356507.00
    2468.600     19813.3505    357015.00
    2468.801     20044.9312    358416.00
    2469.000     20467.3301    361031.00
    2469.200     20316.2092    362249.00
    2469.400     20431.7736    362914.00
    2469.600     20868.2906    363407.00
    2469.801     21160.6337    365005.00
    2470.000     21158.4663    366355.00
    2470.200     20473.9488    367306.00
    2470.400     21472.5021    368277.00
    2470.600     20875.8544    368716.00
    2470.800     21423.6245    368932.00
    2471.000     22012.6547    371220.00
    2471.200     22231.5264    371430.00
    2471.400     22566.8594    371493.00
    2471.600     22403.1903    372158.00
    2471.800     22810.8384    371925.00
    2472.000     22830.0768    371875.00
    2472.201     23501.3820    371926.00
    2472.399     24148.7716    370765.00
    2472.601     24785.9556    374211.00
    2472.801     24167.4260    374010.00
    2472.999     24728.9182    374115.00
    2473.200     24206.6324    373726.00
    2473.400     24802.2823    373601.00
    2473.600     25455.3043    374329.00
    2473.800     24628.1157    375072.00
    2474.000     25354.5751    375961.00
    2474.200     24410.0470    375379.00
    2474.400     25135.1991    375724.00
    2474.601     25427.2926    375406.00
    2474.801     25355.2138    375489.00
    2475.000     25256.9741    375198.00
    2475.199     25421.2605    377165.00
    2475.400     25692.4573    376611.00
    2475.600     25630.4781    377190.00
    2475.800     25889.9610    376003.00
    2476.001     26388.2784    375818.00
    2476.199     27100.3260    376212.00
    2476.400     27712.6818    376344.00
    2476.600     28775.6603    377448.00
    2476.801     30012.4133    377583.00
    2477.000     31327.7146    377457.00
    2477.200     34297.2765    377526.00
    2477.400     37699.8625    377537.00
    2477.601     41163.6293    377726.00
    2477.800     44720.9626    378045.00
    2478.000     48211.4205    379146.00
    2478.200     51345.1523    378793.00
    2478.401     55309.2253    378471.00
    2478.601     61925.9671    378112.00
    2478.800     65750.5250    379459.00
    2479.000     68298.0270    379713.00
    2479.200     68174.4670    379237.00
    2479.398     69311.4273    380008.00
    2479.601     71930.3468    379335.00
    2479.800     78130.6624    377882.00
    2480.000     89122.4952    376791.00
    2480.199    107037.7097    377178.00
    2480.399    129630.0546    377497.00
    2480.599    155573.2832    377440.00
    2480.800    182855.7457    377618.00
    2481.000    207376.6781    377179.00
    2481.199    233695.4510    376578.00
    2481.400    260414.3212    369153.00
    2481.600    271400.8868    378767.00
    2481.800    279143.3985    377726.00
    2482.001    279195.4782    376897.00
    2482.198    268377.0323    375215.00
    2482.400    248229.1711    374342.00
    2482.601    221274.8312    375811.00
    2482.800    188747.2813    373798.00
    2483.000    154213.1750    372551.00
    2483.200    126560.6328    371062.00
    2483.401    109074.5801    368754.00
    2483.600     93934.0817    366409.00
    2483.800     85912.6835    364946.00
    2484.000     77950.0858    363442.00
    2484.199     75190.0866    361329.00
    2484.400     71662.6389    359638.00
    2484.600     68828.8645    357253.00
    2484.801     67216.2257    356151.00
    2485.000     65869.9537    354459.00
    2485.200     65901.6521    352849.00
    2485.399     64448.3970    349971.00
    2485.601     64566.4241    346707.00
    2485.801     66115.3113    343296.00
    2486.000     66334.0302    341458.00
    2486.200     67439.8311    338145.00
    2486.401     67871.6262    334502.00
    2486.600     68631.6587    332395.00
    2486.801     69067.3385    328644.00
    2487.000     67462.7949    324562.00
    2487.200     67162.0429    323522.00
    2487.400     66819.9197    322399.00
    2487.599     66796.7619    318965.00
    2487.801     65478.1796    315955.00
    2488.000     66472.2873    315892.00
    2488.200     66650.3190    312659.00
    2488.400     66991.8033    309887.00
    2488.600     67675.7069    309871.00
    2488.800     69623.3019    309031.00
    2489.000     69565.8085    305846.00
    2489.200     70825.3890    303711.00
    2489.400     70414.0266    302201.00
    2489.601     70510.1886    300746.00
    2489.800     69414.6112    298112.00
    2490.000     68333.1241    295488.00
    2490.200     66216.8913    292609.00
    2490.400     67019.2408    291400.00
    2490.599     67282.4552    290428.00
    2490.801     67948.2620    289541.00
    2491.001     68034.7401    286304.00
    2491.200     68744.5839    284381.00
    2491.401     68585.1413    283715.00
    2491.600     68101.9061    282028.00
    2491.800     67477.7870    279568.00
    2492.000     67375.1208    276361.00
    2492.200     66203.7352    275440.00
    2492.400     66171.6917    272057.00
    2492.600     65946.1661    269638.00
    2492.800     66696.6618    267187.00
    2493.000     67422.7265    264931.00
    2493.200     66893.5344    262461.00
    2493.401     67422.2983    259340.00
    2493.601     67743.3186    257890.00
    2493.800     67531.8869    255438.00
    2494.000     67122.1510    252204.00
    2494.200     66440.0667    249893.00
    2494.400     66810.9540    246921.00
    2494.600     65940.5955    243511.00
    2494.800     65539.2992    241056.00
    2495.000     65535.7246    238278.00
    2495.200     65940.4920    234960.00
    2495.400     66994.3059    235299.00
    2495.601     68201.3004    234383.00
    2495.800     68341.0785    231534.00
    2496.000     69452.6754    230039.00
    2496.200     70544.2280    228570.00
    2496.400     71397.2344    226921.00
    2496.601     71908.2078    226512.00
    2496.801     72507.5598    223761.00
    2497.000     72460.9832    223137.00
    2497.200     71467.4629    220633.00
    2497.400     70760.8133    220127.00
    2497.601     69932.5185    218697.00
    2497.801     67750.8496    215671.00
    2498.001     66721.6031    212889.00
    2498.200     64250.3477    210551.00
    2498.400     63008.0817    208340.00
    2498.599     61051.4289    205696.00
    2498.800     59264.2726    202037.00
    2499.000     57315.2520    199596.00
    2499.200     54864.5144    196682.00
    2499.400     52412.7366    194249.00
    2499.602     50924.4707    192345.00
    2499.799     48148.6360    189832.00
    2500.000     47294.4434    188093.00
    2501.000     94008.2307    404132.00
    2502.000     91414.9447    408760.00
    2503.000     88402.2268    410879.00
    2504.001     84410.5669    410355.00
    2504.999     83227.3276    413061.00
    2506.001     81856.9728    412482.00
    2507.000     80251.8510    413407.00
    2508.000     77584.9433    411109.00
    2509.000     77542.1718    413794.00
    2510.000     76840.0982    414531.00
    2511.000     76735.4685    414876.00
    2512.000     77179.5853    414872.00
    2513.001     76291.3288    415013.00
    2514.000     78752.6569    416045.00
    2515.000     79862.2752    415460.00
    2516.000     80846.2715    412197.00
    2517.001     81903.3799    416549.00
    2518.000     82290.4570    416604.00
    2519.000     84162.5365    416990.00
    2520.000     85142.2092    420688.00
    2521.000     86242.8040    422536.00
    2522.000     87607.6855    426187.00
    2523.000     89949.6586    426780.00
    2524.000     92160.0484    428599.00
    2525.000     94813.2143    430350.00
    2526.000     95472.0387    429958.00
    2527.000     96599.0032    429205.00
    2528.000     97576.7074    431559.00
    2528.999     96995.2593    431818.00
    2530.000     95338.3548    430402.00
    2531.000     94410.6552    429497.00
    2532.000     94342.1001    428324.00
    2533.000     93443.8403    425023.00
    2534.000     93816.5841    423065.00
    2535.000     93601.1042    418849.00
    2536.000     93842.1368    418083.00
    2537.000     94314.5915    416328.00
    2537.999     94163.4908    417056.00
    2539.000     94502.7296    417251.00
    2540.000     95170.7361    409440.00
    2541.000     96461.7616    409261.00
    2541.999     98651.5082    410440.00
    2543.001    100540.9223    410465.00
    2544.000    101010.2293    408047.00
    2545.000    102409.5784    412776.00
    2546.001    102803.4010    413297.00
    2547.000    102557.6320    413522.00
    2548.000    102836.6069    414639.00
    2549.000    102351.8750    418050.00
    2550.001    103281.7393    420440.00
