#XDI/1.1  GSE/1.0
# Column.1: energy eV
# Column.2: ifluor
# Column.3: i0
# Scan.end_time: 2014-03-09 12:11:17
# Scan.start_time: 2014-03-09 11:59:01
# Element.symbol:  S
# Element.edge:  K
# Mono.d_spacing:  3.13477
# Mono.name: Si 111
# Sample.formula: FeS2
# Sample.name: marcasite
# Sample.prep: powder on halogen-free tape
# Sample.temperature: room temperature
# Facility.Name:  APS
# Beamline.Name:  13-ID-E
# Beamline.xray_source:  3.6cm undulator
# Beamline.I0: He, 200 cm
# Beamline.If: 4-element SDD (Vortex ME-4)
# ScanParameters.ScanType: xafs
# ScanParameters.E0: 2472.000
# ScanParameters.Start: Scan.Member: Value
# ScanParameters.E0: 2472.00
# ScanParameters.Legend: Start       Stop       Step       Npts       Time   Kspace?
# ScanParameters.Region1: -22.000    -8.0000     2.0000     8.0000     2.0000   0
# ScanParameters.Region2: -8.0000     16.000    0.15000     161.00     2.0000   0
# ScanParameters.Region3: 2.0493     7.2453   0.049962     105.00     2.0000   1
#-------------------------
#  energy  ifluor  i0
    2450.000      3312.8405    109796.00
    2452.001      3672.7543    112248.00
    2454.000      3552.1060    111340.00
    2456.000      3749.9850    111146.00
    2458.000      3925.1434    111638.00
    2460.000      4130.8540    111601.00
    2462.000      4664.3467    111929.00
    2464.000      5448.4635    111509.00
    2464.151      5543.7461    111244.00
    2464.301      5448.1220    110840.00
    2464.450      5673.0990    110563.00
    2464.601      5701.4037    110599.00
    2464.750      5680.2872    110413.00
    2464.899      6006.7730    110046.00
    2465.051      6064.1917    109645.00
    2465.200      6128.5878    109753.00
    2465.351      6289.0814    109848.00
    2465.501      6339.0306    109226.00
    2465.650      6558.8350    110327.00
    2465.801      6845.6826    110296.00
    2465.950      6939.4528    110378.00
    2466.100      7245.7043    110086.00
    2466.250      7421.8199    110269.00
    2466.400      7586.6986    109514.00
    2466.550      7867.9989    109629.00
    2466.700      8275.8061    109913.00
    2466.850      8459.4040    109425.00
    2467.000      9005.6764    109958.00
    2467.149      9595.2675    110208.00
    2467.301      9973.9796    110268.00
    2467.450     10470.8189    110467.00
    2467.600     11113.6051    110254.00
    2467.750     11492.5656    110100.00
    2467.901     12251.2463    110112.00
    2468.051     12876.1908    110129.00
    2468.200     13698.4013    110301.00
    2468.351     14638.7669    110652.00
    2468.501     15946.6374    110557.00
    2468.650     17323.2488    110624.00
    2468.800     19188.8476    110794.00
    2468.950     21241.0647    110455.00
    2469.100     23634.7896    111175.00
    2469.251     26501.9362    111190.00
    2469.400     30248.9496    111344.00
    2469.551     33675.4151    111136.00
    2469.701     39073.7987    111385.00
    2469.850     45208.4580    111466.00
    2470.000     53210.4818    111419.00
    2470.150     63977.6315    111570.00
    2470.301     78515.9057    111718.00
    2470.450     96988.8101    111656.00
    2470.600    118999.2239    111095.00
    2470.750    143164.2812    111164.00
    2470.900    164882.7429    110990.00
    2471.050    182673.7000    111236.00
    2471.200    192843.4787    111808.00
    2471.350    197458.2127    111801.00
    2471.500    198572.5226    112475.00
    2471.650    196264.0923    112201.00
    2471.801    190237.0974    112562.00
    2471.951    185604.6865    112891.00
    2472.101    179829.5745    113433.00
    2472.250    171497.2343    113540.00
    2472.400    164848.4352    113828.00
    2472.550    157168.7013    113801.00
    2472.700    152160.5446    114828.00
    2472.850    143799.4175    115125.00
    2473.000    137217.8567    115999.00
    2473.150    128877.4253    116173.00
    2473.300    121022.2558    116545.00
    2473.450    111930.8709    116423.00
    2473.600    103911.5703    117304.00
    2473.751     95667.1875    116870.00
    2473.900     89059.3233    117137.00
    2474.050     83001.5858    117264.00
    2474.200     77439.6838    117748.00
    2474.350     73311.9753    117700.00
    2474.500     69785.6057    118074.00
    2474.650     67300.7584    117899.00
    2474.801     65300.1214    117969.00
    2474.950     63444.2283    117670.00
    2475.100     62551.2808    118360.00
    2475.250     61717.9958    118346.00
    2475.400     61926.1039    118425.00
    2475.550     62508.3876    118803.00
    2475.700     63864.0241    119133.00
    2475.851     66019.2656    118968.00
    2476.001     68515.7017    119307.00
    2476.151     71190.9920    119059.00
    2476.300     75185.4394    120662.00
    2476.450     79247.5570    120625.00
    2476.601     84508.5739    121245.00
    2476.750     89014.1895    121315.00
    2476.900     94646.9904    121681.00
    2477.050     98655.0925    121806.00
    2477.200     95679.8846    105793.00
    2477.351    105584.4138    121848.00
    2477.500    109856.8933    122675.00
    2477.650    112507.5569    123447.00
    2477.801    115051.0111    123649.00
    2477.950    116631.0912    123148.00
    2478.100    118616.6586    123591.00
    2478.250    120034.0037    123595.00
    2478.400    121566.8713    123955.00
    2478.551    122437.0816    123254.00
    2478.700    124759.6981    125179.00
    2478.851    126307.1815    124760.00
    2479.000    127424.9661    124840.00
    2479.150    128959.5970    125153.00
    2479.300    128938.7990    125234.00
    2479.450    130256.9631    125226.00
    2479.601    129979.4587    125672.00
    2479.750    129345.4817    125451.00
    2479.900    129827.3506    125759.00
    2480.050    129223.3428    125614.00
    2480.200    128889.9229    125865.00
    2480.350    128262.2127    126087.00
    2480.500    128119.5985    126126.00
    2480.650    127947.5253    126351.00
    2480.801    126961.5422    125983.00
    2480.950    127648.5439    126227.00
    2481.101    126868.9853    126380.00
    2481.250    126504.1518    126805.00
    2481.400    125973.5888    126432.00
    2481.551    126768.4946    126552.00
    2481.700    126767.4843    126429.00
    2481.850    127297.7914    126785.00
    2482.000    127332.1344    126717.00
    2482.151    126609.6397    126929.00
    2482.300    127191.7396    126566.00
    2482.450    126783.2352    126960.00
    2482.601    126278.8471    127044.00
    2482.750    126544.5000    127538.00
    2482.900    126098.9598    127138.00
    2483.051    124670.6994    127598.00
    2483.200    126260.3200    127847.00
    2483.350    125752.8506    128191.00
    2483.500    123896.2235    127912.00
    2483.650    124231.5737    128505.00
    2483.801    124083.9298    128222.00
    2483.951    125285.7813    128822.00
    2484.100    123884.5772    128568.00
    2484.250    124042.3965    129058.00
    2484.400    124335.4165    128342.00
    2484.550    124286.4493    128887.00
    2484.700    124314.9797    128712.00
    2484.850    125417.4444    129452.00
    2485.000    125105.2033    128902.00
    2485.150    124699.7081    129167.00
    2485.301    125410.6594    129549.00
    2485.450    125473.4955    129468.00
    2485.600    125774.4813    129578.00
    2485.750    125627.5178    129562.00
    2485.901    124932.2670    129478.00
    2486.051    124362.6637    129801.00
    2486.200    124024.7716    129677.00
    2486.350    125021.3355    129850.00
    2486.499    124403.1785    130125.00
    2486.649    124707.6715    130684.00
    2486.800    123508.8809    130291.00
    2486.950    124104.1528    130760.00
    2487.100    123400.2213    130480.00
    2487.250    123656.2599    130767.00
    2487.400    122472.9796    130863.00
    2487.551    122223.7621    130772.00
    2487.700    122208.2363    130846.00
    2487.850    122215.7448    130876.00
    2488.000    122084.3706    131230.00
    2488.790    121688.1219    131355.00
    2489.599    123616.2125    131769.00
    2490.427    124314.4839    132531.00
    2491.273    124830.7447    133206.00
    2492.139    126170.7505    133214.00
    2493.023    125508.4858    134120.00
    2493.927    123980.6013    133805.00
    2494.850    122208.5815    133813.00
    2495.792    118582.7187    132593.00
    2496.753    116743.6191    133299.00
    2497.732    116727.9963    133400.00
    2498.732    115966.4073    133971.00
    2499.750    115304.1399    134838.00
    2500.786    115371.0328    135486.00
    2501.843    115328.8808    136421.00
    2502.917    115669.1695    136966.00
    2504.011    116014.2777    137830.00
    2505.125    116049.5106    138478.00
    2506.257    117646.2488    139344.00
    2507.408    119684.1469    140014.00
    2508.578    122536.2342    141034.00
    2509.767    124763.0243    141702.00
    2510.975    128757.3779    142401.00
    2512.203    132020.6134    143407.00
    2513.449    135472.1171    144116.00
    2514.714    139830.6694    145183.00
    2515.998    142137.1165    145612.00
    2517.301    144035.8748    146606.00
    2518.624    143234.2389    147078.00
    2519.966    144379.4184    147725.00
    2521.325    143052.8982    147815.00
    2522.704    142798.9261    148228.00
    2524.103    143073.6753    148357.00
    2525.521    142145.8940    148430.00
    2526.957    141198.9191    149496.00
    2528.411    140005.8766    149694.00
    2529.886    138511.6876    151052.00
    2531.380    136438.9250    151512.00
    2532.893    135785.3231    152789.00
    2534.424    133861.4116    152911.00
    2535.975    133984.0621    152994.00
    2537.544    135415.6822    153504.00
    2539.132    136692.6575    153243.00
    2540.740    136133.2710    152117.00
    2542.367    136378.5506    150922.00
    2544.013    139853.8723    152767.00
    2545.677    140361.1849    152507.00
    2547.361    142931.3347    153004.00
    2549.063    142833.7855    151885.00
    2550.784    143776.5697    150953.00
    2552.525    143910.3370    150207.00
    2554.286    144381.2088    149842.00
    2556.065    146120.6532    150086.00
    2557.862    145276.6856    149567.00
    2559.679    146371.6389    149568.00
    2561.515    146152.8678    149065.00
    2563.369    145650.6404    148321.00
    2565.243    144396.2676    147353.00
    2567.136    141976.6950    144604.00
    2569.049    137615.1198    139491.00
    2570.979    138960.3416    142968.00
    2572.929    137831.0613    144099.00
    2574.898    136464.6224    142754.00
    2576.886    134007.8124    143030.00
    2578.893    131153.7287    140585.00
    2580.918    128767.2589    138697.00
    2582.964    127629.2616    138053.00
    2585.028    126491.0250    137043.00
    2587.111    124158.6844    135449.00
    2589.214    123548.6131    132955.00
    2591.334    121913.5351    130277.00
    2593.474    119459.8387    127661.00
    2595.634    115211.2527    122881.00
    2597.812    105814.5738    111749.00
    2600.009    109007.6390    115042.00
    2602.226    108400.8493    114226.00
    2604.460    103039.6714    108094.00
    2606.715    107632.6542    112490.00
    2608.988    106610.5280    110734.00
    2611.281    104735.1096    109216.00
    2613.592     99466.7449    104264.00
    2615.923    100248.7158    104022.00
    2618.272     94677.6935     99134.00
    2620.640     94819.5852     97787.00
    2623.027     91674.5907     95522.00
    2625.434     90783.3783     94301.00
    2627.859     81504.2917     83533.00
    2630.304     75262.4900     77406.00
    2632.767     76744.9878     79002.00
    2635.250     74585.4809     76673.00
    2637.751     68398.5466     69695.00
    2640.273     64278.6402     65041.00
    2642.812     61847.9518     62136.00
    2645.370     58065.3339     58193.00
    2647.948     57875.3452     58112.00
    2650.545     52396.9851     52426.00
    2653.161     47210.8958     47142.00
    2655.796     41630.9284     41994.00
    2658.448     35742.0486     35585.00
    2661.122     26992.4154     26772.00
    2663.813     21917.0711     21526.00
    2666.525     23731.0955     23262.00
    2669.255     20559.6653     20320.00
    2672.003     17600.7490     17136.00
