#XDI/1.1  GSE/2.0
# Column.1: energy eV
# Column.2: ifluor
# Column.3: i0
# Scan.end_time: 2018-02-22 15:28:01
# Scan.start_time: 2018-02-22 15:22:58
# Element.symbol:  S
# Element.edge:  K
# Mono.d_spacing:  3.13477
# Mono.name: Si 111
# Sample.formula: MgS
# Sample.name: magnesium sulfide
# Sample.prep: powder on tape halogen-free tape
# Sample.temperature: room temperature
# Facility.Name:  APS
# Beamline.Name:  13-ID-E
# Beamline.xray_source:  3.6cm undulator
# Beamline.I0: He,  20 cm
# Beamline.If: 4-element SDD (Vortex ME-4)
# ScanParameters.ScanType: xafs
# ScanParameters.E0: 2472.000
# ScanParameters.Legend:  Start, Stop, Step, K-space, Time
# ScanParameters.Region1:    -25.000,   -10.000,     1.500  False  1.00
# ScanParameters.Region2:    -10.000,    15.000,     0.100  False  1.00
# ScanParameters.Region3:     15.000,    75.000,     1.500  False  1.00
#-------------------------
#  energy  ifluor  i0
    2446.999      3576.63   9094607.00
    2448.498      3446.59   9436127.00
    2449.998      4035.78  10569058.00
    2451.498      4258.88  11123350.00
    2452.998      4674.99  11451093.00
    2454.498      4831.08  11940778.00
    2455.999      4775.06  12110158.00
    2457.499      4859.08  11991896.00
    2458.999      5178.20  11996886.00
    2460.412      5191.20  11719684.00
    2461.475      5304.22  11536698.00
    2462.012      5480.29  11449298.00
    2462.200      5492.27  11424140.00
    2462.301      5521.32  11469183.00
    2462.401      5475.27  11453524.00
    2462.501      5490.31  11405282.00
    2462.601      5619.33  11388414.00
    2462.702      5641.34  11353641.00
    2462.802      5541.31  11392149.00
    2462.902      5647.32  11409805.00
    2463.002      5690.35  11342056.00
    2463.102      5707.37  11325948.00
    2463.202      5820.41  11306280.00
    2463.301      5655.36  11246826.00
    2463.401      5804.39  11273264.00
    2463.501      5896.46  11331165.00
    2463.602      5930.44  11312682.00
    2463.701      5930.46  11308909.00
    2463.801      5994.47  11263455.00
    2463.901      5968.48  11295556.00
    2464.001      5992.48  11220334.00
    2464.102      6105.53  11260277.00
    2464.201      6113.54  11277010.00
    2464.301      6061.49  11192429.00
    2464.401      6124.55  11225388.00
    2464.501      6165.53  11190386.00
    2464.601      6294.64  11173180.00
    2464.702      6321.61  11155131.00
    2464.802      6411.68  11225991.00
    2464.902      6581.73  11210411.00
    2465.002      6609.75  11237450.00
    2465.102      6571.73  11191744.00
    2465.202      6764.83  11154224.00
    2465.302      6824.84  11174259.00
    2465.402      7034.93  11213892.00
    2465.501      6964.93  11161349.00
    2465.601      7014.95  11230088.00
    2465.702      7199.04  11286888.00
    2465.802      7309.09  11267256.00
    2465.902      7357.11  11341856.00
    2466.001      7566.20  11374600.00
    2466.101      7694.28  11440704.00
    2466.201      7886.41  11449479.00
    2466.301      7802.33  11374934.00
    2466.401      7947.46  11359700.00
    2466.501      8072.46  11297620.00
    2466.601      8287.59  11358053.00
    2466.701      8275.63  11436984.00
    2466.801      8514.71  11394391.00
    2466.901      8417.71  11446475.00
    2467.001      8756.87  11484334.00
    2467.101      8859.93  11464204.00
    2467.201      8977.01  11460473.00
    2467.301      9118.11  11419132.00
    2467.401      9358.23  11377277.00
    2467.501      9373.22  11261829.00
    2467.602      9503.33  11293288.00
    2467.702      9729.40  11250502.00
    2467.802     10106.67  11349236.00
    2467.902     10515.89  11364400.00
    2468.001     10598.04  11389353.00
    2468.102     10842.19  11384848.00
    2468.201     10980.27  11338968.00
    2468.301     11507.59  11368195.00
    2468.401     11609.68  11297659.00
    2468.501     11796.82  11264202.00
    2468.601     12221.18  11361574.00
    2468.701     12608.42  11428019.00
    2468.801     12917.69  11432377.00
    2468.902     13518.21  11417879.00
    2469.001     13892.52  11413959.00
    2469.101     14327.90  11376361.00
    2469.201     14748.31  11388832.00
    2469.301     15609.12  11356171.00
    2469.401     16283.64  11410747.00
    2469.501     17163.73  11416767.00
    2469.602     18075.64  11405372.00
    2469.701     19078.89  11401518.00
    2469.801     20196.97  11429651.00
    2469.902     21318.60  11466724.00
    2470.002     22322.84  11506578.00
    2470.101     24214.46  11561662.00
    2470.201     24913.39  11570541.00
    2470.301     26136.57  11503235.00
    2470.401     27366.49  11511467.00
    2470.501     28927.89  11508938.00
    2470.601     30815.29  11501186.00
    2470.702     33078.82  11502645.00
    2470.801     35961.29  11522312.00
    2470.901     37743.53  11296163.00
    2471.002     41799.66  11402503.00
    2471.102     45768.55  11524075.00
    2471.202     50334.82  11514619.00
    2471.302     55553.53  11529265.00
    2471.401     61263.71  11539040.00
    2471.501     67209.57  11527896.00
    2471.601     73481.20  11442569.00
    2471.701     80738.50  11462960.00
    2471.802     88358.40  11526478.00
    2471.902     95251.14  11505147.00
    2472.001    104408.48  11588488.00
    2472.101    112431.59  11589091.00
    2472.201    119208.57  11524624.00
    2472.302    128442.65  11542079.00
    2472.402    135812.15  11566351.00
    2472.502    144796.98  11610555.00
    2472.602    151974.65  11632820.00
    2472.702    158645.27  11575649.00
    2472.802    167967.54  11701814.00
    2472.901    173977.37  11626434.00
    2473.002    179831.75  11575014.00
    2473.102    184360.48  11601680.00
    2473.202    191158.32  11648684.00
    2473.302    193643.95  11590652.00
    2473.402    196289.52  11642407.00
    2473.501    198335.93  11619850.00
    2473.601    199357.62  11658912.00
    2473.701    198928.09  11650897.00
    2473.801    198161.84  11721545.00
    2473.902    195465.79  11720927.00
    2474.002    194745.08  11751585.00
    2474.101    192095.86  11715442.00
    2474.202    191163.89  11692067.00
    2474.301    189739.42  11711740.00
    2474.401    190820.07  11717746.00
    2474.501    191539.72  11705618.00
    2474.601    192995.21  11694455.00
    2474.701    195049.22  11688104.00
    2474.802    197343.72  11740049.00
    2474.902    198768.39  11716010.00
    2475.001    199034.19  11719961.00
    2475.101    198825.81  11681954.00
    2475.201    198718.36  11683826.00
    2475.301    198047.99  11743408.00
    2475.402    196630.11  11729681.00
    2475.502    197647.81  11834688.00
    2475.602    195297.23  11856471.00
    2475.702    195733.01  11848234.00
    2475.802    193285.83  11719453.00
    2475.901    192155.80  11734295.00
    2476.001    193671.60  11730100.00
    2476.101    192890.77  11720680.00
    2476.201    193796.43  11670319.00
    2476.301    193143.86  11356238.00
    2476.402    193681.10  11770904.00
    2476.502    195532.54  11786917.00
    2476.602    194808.26  11594278.00
    2476.702    194465.20  11784870.00
    2476.802    195719.54  11763421.00
    2476.901    196645.03  11767262.00
    2477.001    197029.51  11874719.00
    2477.101    196284.77  11844987.00
    2477.201    195248.61  11791954.00
    2477.301    194221.34  11776720.00
    2477.401    193807.02  11820442.00
    2477.501    192608.80  11913389.00
    2477.601    191045.57  11924667.00
    2477.701    188506.21  11711651.00
    2477.801    184482.03  11795174.00
    2477.901    181040.88  11721040.00
    2478.002    178368.02  11606654.00
    2478.102    173562.96  11825402.00
    2478.202    172465.28  11963113.00
    2478.302    170356.78  12028290.00
    2478.402    166783.64  12050987.00
    2478.501    164457.44  11990119.00
    2478.601    160543.98  11933259.00
    2478.701    158269.39  11905962.00
    2478.801    156841.78  11980393.00
    2478.902    155416.55  11960906.00
    2479.002    153172.29  11947825.00
    2479.101    151582.58  11968748.00
    2479.201    149823.90  11957738.00
    2479.301    148635.91  11957861.00
    2479.401    147579.43  11986061.00
    2479.501    146419.34  11926701.00
    2479.601    146697.30  11952212.00
    2479.701    146985.21  11897302.00
    2479.801    148267.05  11960698.00
    2479.902    149366.18  12035085.00
    2480.002    150847.64  12032805.00
    2480.102    150214.71  11945414.00
    2480.202    151522.16  11919774.00
    2480.301    153094.64  11943300.00
    2480.401    154325.72  11921197.00
    2480.502    155406.04  11927089.00
    2480.602    157336.25  12017392.00
    2480.702    156874.45  11972989.00
    2480.802    157998.47  12020823.00
    2480.902    157031.98  12043211.00
    2481.002    156501.81  12040855.00
    2481.102    155215.53  12008788.00
    2481.202    154494.68  11963007.00
    2481.301    154716.89  12025271.00
    2481.401    154003.14  12013370.00
    2481.501    153225.38  12051063.00
    2481.601    152952.53  12084200.00
    2481.701    152575.69  12080005.00
    2481.801    152240.36  12109128.00
    2481.901    151325.14  12045696.00
    2482.001    151676.12  12052825.00
    2482.101    151259.58  12044055.00
    2482.202    150590.23  12080029.00
    2482.302    150928.28  12044077.00
    2482.402    150789.43  12043331.00
    2482.502    150052.19  12079683.00
    2482.602    150213.24  12087669.00
    2482.701    150088.28  12112441.00
    2482.801    149129.68  12134063.00
    2482.901    148120.34  12144126.00
    2483.001    147693.22  12116526.00
    2483.101    148241.41  12109592.00
    2483.202    146615.41  12092625.00
    2483.302    147914.38  12144218.00
    2483.401    147699.24  12166244.00
    2483.501    147486.25  12160500.00
    2483.601    147569.23  12140345.00
    2483.701    149228.51  12191078.00
    2483.801    148419.09  12254734.00
    2483.901    149426.79  12249216.00
    2484.002    149850.52  12125797.00
    2484.102    150873.03  12250403.00
    2484.202    152717.61  12221315.00
    2484.301    152883.08  12180719.00
    2484.401    154318.46  12193239.00
    2484.501    154914.66  12167834.00
    2484.601    155627.99  12182805.00
    2484.701    156643.36  12177641.00
    2484.801    157078.33  12166090.00
    2484.901    158971.72  12182177.00
    2485.001    159569.87  12209798.00
    2485.101    159722.81  12155577.00
    2485.202    160538.62  12130665.00
    2485.302    161315.80  12120853.00
    2485.402    162421.03  12150424.00
    2485.501    163393.03  12167550.00
    2485.601    162187.43  12087660.00
    2485.702    162786.19  12057116.00
    2485.802    163566.43  12082547.00
    2485.901    163250.04  12041368.00
    2486.001    164187.56  12098315.00
    2486.101    164013.16  12049582.00
    2486.202    162888.01  11994734.00
    2486.302    164361.75  12021514.00
    2486.402    164571.87  12041845.00
    2486.501    165102.75  12091632.00
    2486.601    164861.07  12091980.00
    2486.702    166083.98  12033587.00
    2486.802    167606.10  12201533.00
    2486.990    170488.42  12484067.00
    2487.526    170846.85  12547493.00
    2488.588    166862.16  12503920.00
    2490.000    158504.35  12508048.00
    2491.499    152033.14  12544131.00
    2492.999    143978.99  12192240.00
    2494.499    142335.65  12150993.00
    2495.999    142211.25  12040985.00
    2497.499    144505.62  11974653.00
    2498.999    148854.46  12084281.00
    2500.499    154069.37  12005527.00
    2501.999    163624.66  12518354.00
    2503.499    166275.58  12502186.00
    2504.999    169533.16  12587190.00
    2506.499    167788.27  12518971.00
    2507.999    166352.61  12433149.00
    2509.499    165057.91  12300714.00
    2510.999    157844.00  11890594.00
    2512.499    159742.67  12118043.00
    2513.999    163716.81  12232823.00
    2515.499    167550.88  12294902.00
    2516.999    172724.06  12387022.00
    2518.499    176099.70  12503858.00
    2519.999    176328.71  12519841.00
    2521.499    173021.47  12408730.00
    2522.999    172469.58  12665402.00
    2524.499    165510.89  12297580.00
    2525.999    167165.32  12576121.00
    2527.499    166639.86  12416180.00
    2528.999    170083.57  12541876.00
    2530.499    170013.28  12481154.00
    2531.999    168148.22  12398518.00
    2533.500    167658.43  12382356.00
    2535.000    163484.36  12197233.00
    2536.499    163638.62  12092201.00
    2538.000    166950.65  12132865.00
    2539.500    169912.91  12328001.00
    2540.999    165035.16  11982627.00
    2542.499    159953.35  11773992.00
    2543.999    156935.81  11723680.00
