#XDI/1.1  GSE/2.0
# Column.1: energy eV
# Column.2: ifluor
# Column.3: i0
# Scan.end_time: 2018-02-22 15:22:48
# Scan.start_time: 2018-02-22 15:17:45
# Element.symbol:  S
# Element.edge:  K
# Mono.d_spacing:  3.13477
# Mono.name: Si 111
# Sample.formula: MgS
# Sample.name: magnesium sulfide
# Sample.prep: powder on tape halogen-free tape
# Sample.temperature: room temperature
# Facility.Name:  APS
# Beamline.Name:  13-ID-E
# Beamline.xray_source:  3.6cm undulator
# Beamline.I0: He,  20 cm
# Beamline.If: 4-element SDD (Vortex ME-4)
# ScanParameters.ScanType: xafs
# ScanParameters.E0: 2472.000
# ScanParameters.Legend:  Start, Stop, Step, K-space, Time
# ScanParameters.Region1:    -25.000,   -10.000,     1.500  False  1.00
# ScanParameters.Region2:    -10.000,    15.000,     0.100  False  1.00
# ScanParameters.Region3:     15.000,    75.000,     1.500  False  1.00
#-------------------------
#  energy  ifluor  i0
    2446.999      3477.58   8869844.00
    2448.498      3397.56   9252489.00
    2449.998      4185.80  10368690.00
    2451.498      4330.87  10937742.00
    2452.998      4719.98  11422275.00
    2454.498      4773.01  11835222.00
    2455.998      4961.09  12026816.00
    2457.499      4948.08  11969661.00
    2458.998      5109.13  12006026.00
    2460.411      5172.16  11710967.00
    2461.475      5382.20  11624717.00
    2462.013      5614.29  11586699.00
    2462.201      5658.33  11558071.00
    2462.301      5525.29  11546390.00
    2462.401      5569.30  11539258.00
    2462.501      5651.30  11537037.00
    2462.601      5667.33  11574264.00
    2462.702      5656.32  11525977.00
    2462.802      5635.31  11492448.00
    2462.902      5615.31  11414107.00
    2463.002      5620.29  11381614.00
    2463.102      5697.33  11435146.00
    2463.202      5684.37  11462991.00
    2463.302      5774.34  11404490.00
    2463.401      5801.40  11362101.00
    2463.501      5652.32  11332935.00
    2463.601      5733.37  11297957.00
    2463.702      5787.35  11262172.00
    2463.801      5758.38  11299760.00
    2463.902      5868.41  11322861.00
    2464.002      5904.42  11261233.00
    2464.102      6026.49  11245012.00
    2464.201      6063.48  11192259.00
    2464.301      6097.48  11207316.00
    2464.401      6023.48  11168294.00
    2464.501      6276.55  11270677.00
    2464.602      6203.49  11143178.00
    2464.702      6318.61  11066941.00
    2464.802      6282.55  11099050.00
    2464.901      6353.60  11052902.00
    2465.001      6343.59  11072806.00
    2465.102      6470.66  11032558.00
    2465.201      6333.58  11101527.00
    2465.302      6757.77  11122783.00
    2465.402      6711.76  11181144.00
    2465.501      6740.76  11213550.00
    2465.601      6887.84  11199841.00
    2465.701      7078.95  11211815.00
    2465.801      7034.91  11201471.00
    2465.901      7201.95  11196685.00
    2466.001      7264.00  11238545.00
    2466.101      7460.11  11323791.00
    2466.201      7641.22  11363868.00
    2466.301      7738.21  11347111.00
    2466.401      7630.20  11302113.00
    2466.501      7889.29  11314067.00
    2466.601      7962.36  11345012.00
    2466.701      8296.55  11419987.00
    2466.801      8256.56  11461868.00
    2466.901      8299.54  11384411.00
    2467.001      8455.63  11361179.00
    2467.102      8673.76  11325794.00
    2467.202      8616.69  11231699.00
    2467.301      8746.83  11363336.00
    2467.401      8988.91  11350162.00
    2467.501      9221.02  11323569.00
    2467.601      9272.08  11340703.00
    2467.701      9511.22  11302415.00
    2467.801      9765.43  11371984.00
    2467.901      9932.48  11364543.00
    2468.001     10138.63  11350177.00
    2468.102     10449.85  11377198.00
    2468.202     10873.11  11403515.00
    2468.302     11140.26  11390059.00
    2468.401     11365.44  11367482.00
    2468.501     11669.67  11336077.00
    2468.602     11772.72  11346925.00
    2468.702     12281.05  11361884.00
    2468.801     12450.25  11447354.00
    2468.901     12890.66  11443957.00
    2469.002     13417.03  11425070.00
    2469.102     13847.45  11402722.00
    2469.202     14508.02  11385970.00
    2469.302     15036.39  11306198.00
    2469.401     15672.07  11357175.00
    2469.501     16708.04  11405953.00
    2469.601     17714.01  11468441.00
    2469.701     18995.50  11537511.00
    2469.801     19854.47  11570058.00
    2469.901     20947.91  11533132.00
    2470.002     21802.96  11471491.00
    2470.102     22964.50  11448876.00
    2470.202     24181.99  11453997.00
    2470.301     25129.49  11421787.00
    2470.401     26769.18  11478065.00
    2470.502     28052.12  11488134.00
    2470.602     29765.11  11486880.00
    2470.702     32395.75  11474006.00
    2470.802     34255.66  11405904.00
    2470.902     37213.64  11448591.00
    2471.002     41020.49  11528093.00
    2471.101     44493.32  11544967.00
    2471.201     49722.70  11529212.00
    2471.301     54061.02  11487221.00
    2471.401     59142.36  11409671.00
    2471.501     65164.58  11419998.00
    2471.602     72202.34  11527860.00
    2471.702     78799.24  11546410.00
    2471.802     86193.69  11562905.00
    2471.901     94062.21  11566135.00
    2472.001    101811.27  11542591.00
    2472.102    110646.52  11570765.00
    2472.202    119003.65  11540639.00
    2472.301    126507.98  11492137.00
    2472.401    134339.84  11588100.00
    2472.501    142654.29  11599311.00
    2472.601    149135.62  11556972.00
    2472.701    158170.80  11598771.00
    2472.801    165480.79  11559873.00
    2472.901    172450.88  11547740.00
    2473.001    179573.93  11526145.00
    2473.101    185003.22  11605185.00
    2473.201    191001.60  11659466.00
    2473.301    193965.93  11582177.00
    2473.401    198225.12  11640237.00
    2473.501    199939.13  11641489.00
    2473.601    199947.12  11616613.00
    2473.702    199640.51  11669458.00
    2473.802    198989.71  11704927.00
    2473.902    196436.84  11685366.00
    2474.001    195039.40  11681780.00
    2474.101    191991.23  11672266.00
    2474.201    191217.33  11682717.00
    2474.301    190206.97  11649885.00
    2474.402    189284.33  11607669.00
    2474.502    190914.03  11666597.00
    2474.602    193312.61  11697763.00
    2474.702    195800.02  11707699.00
    2474.802    197753.36  11695480.00
    2474.902    199257.06  11744899.00
    2475.002    200364.08  11721158.00
    2475.101    200518.93  11743656.00
    2475.201    201177.35  11784141.00
    2475.301    198964.03  11706888.00
    2475.401    197579.94  11681864.00
    2475.501    196968.75  11729763.00
    2475.602    195123.71  11714112.00
    2475.702    193337.75  11674627.00
    2475.802    193776.81  11770617.00
    2475.902    193146.88  11747912.00
    2476.002    193910.14  11770219.00
    2476.101    193589.66  11726542.00
    2476.202    194201.08  11652261.00
    2476.301    194330.13  11375889.00
    2476.401    195135.88  11823931.00
    2476.502    196093.83  11796040.00
    2476.602    195336.18  11543324.00
    2476.701    195664.91  11757903.00
    2476.801    195922.78  11761566.00
    2476.902    197090.05  11785899.00
    2477.001    196494.54  11739406.00
    2477.101    195896.63  11716203.00
    2477.201    195688.87  11766504.00
    2477.302    194155.09  11727583.00
    2477.401    193129.82  11712985.00
    2477.501    191678.84  11777721.00
    2477.601    190263.52  11795809.00
    2477.702    187379.20  11647750.00
    2477.802    184238.17  11769684.00
    2477.902    181589.07  11716528.00
    2478.001    178179.93  11588685.00
    2478.101    175124.11  11921685.00
    2478.201    172830.01  12010246.00
    2478.302    169353.64  12059420.00
    2478.401    165585.76  12012177.00
    2478.501    163309.04  11997585.00
    2478.602    160324.66  11947808.00
    2478.702    158088.25  11918110.00
    2478.801    155481.41  11934607.00
    2478.901    153345.14  11920853.00
    2479.001    150685.30  11879240.00
    2479.101    150054.12  11972723.00
    2479.201    146653.68  11855129.00
    2479.301    147623.27  12042960.00
    2479.401    146924.44  12058424.00
    2479.501    146493.69  12073324.00
    2479.601    145613.75  12032763.00
    2479.701    146315.99  12082055.00
    2479.801    147317.09  12082208.00
    2479.901    147805.24  12085454.00
    2480.001    149241.74  12120900.00
    2480.101    150816.98  12078044.00
    2480.202    151659.57  12089414.00
    2480.301    153480.85  12081933.00
    2480.401    154623.04  12147141.00
    2480.501    155057.10  12097118.00
    2480.602    156638.43  12113555.00
    2480.702    156104.75  12091896.00
    2480.801    156719.23  12108467.00
    2480.901    156160.56  12055385.00
    2481.001    156008.61  12107936.00
    2481.101    155473.17  12090399.00
    2481.201    154016.43  12098199.00
    2481.302    153558.78  12076923.00
    2481.402    152071.49  12059133.00
    2481.502    152558.01  12119147.00
    2481.601    151488.68  12035955.00
    2481.701    151281.88  12032738.00
    2481.801    149992.86  12011651.00
    2481.901    151120.76  12165803.00
    2482.001    150562.92  12108310.00
    2482.101    150205.29  12117230.00
    2482.201    149396.58  12097232.00
    2482.301    149303.09  12152873.00
    2482.401    148884.37  12150303.00
    2482.501    148672.96  12137982.00
    2482.601    149383.59  12204416.00
    2482.701    147502.91  12128579.00
    2482.801    147224.28  12156114.00
    2482.901    147347.12  12155350.00
    2483.002    146213.29  12211845.00
    2483.102    146622.85  12241005.00
    2483.202    146165.90  12283080.00
    2483.302    146285.83  12247795.00
    2483.402    147055.48  12268584.00
    2483.502    145951.15  12248951.00
    2483.601    146524.17  12233666.00
    2483.702    146647.83  12249893.00
    2483.802    147087.75  12291667.00
    2483.901    147398.24  12220743.00
    2484.001    148727.72  12201534.00
    2484.101    148609.04  12201754.00
    2484.201    149959.44  12233947.00
    2484.302    151802.88  12229697.00
    2484.401    151477.47  12200909.00
    2484.501    153066.63  12158061.00
    2484.601    153619.29  12146261.00
    2484.702    154165.73  12117957.00
    2484.802    156027.24  12158905.00
    2484.902    157399.59  12190028.00
    2485.002    158220.97  12183426.00
    2485.101    159355.44  12172315.00
    2485.201    159692.75  12137144.00
    2485.301    159697.25  12117744.00
    2485.402    159556.16  12043796.00
    2485.502    160592.69  12082494.00
    2485.602    161178.75  12067328.00
    2485.702    161497.49  12026440.00
    2485.801    161622.58  12052096.00
    2485.901    161824.09  12062971.00
    2486.002    162830.40  12111993.00
    2486.102    162489.46  12127126.00
    2486.202    163131.47  12134749.00
    2486.302    163130.31  12116280.00
    2486.402    164425.24  12143358.00
    2486.502    163781.12  12157643.00
    2486.601    164168.50  12157899.00
    2486.701    164832.94  12146732.00
    2486.801    165452.51  12258933.00
    2486.989    168367.00  12485858.00
    2487.527    169627.86  12623026.00
    2488.588    165792.78  12506263.00
    2490.000    158388.18  12566422.00
    2491.499    150229.89  12596757.00
    2492.999    144508.75  12506506.00
    2494.499    144242.64  12499827.00
    2496.000    143065.14  12302424.00
    2497.499    145734.14  12338999.00
    2498.999    150752.79  12326054.00
    2500.499    155425.64  12350128.00
    2501.999    163692.03  12688599.00
    2503.499    165359.60  12525645.00
    2504.999    168567.74  12677770.00
    2506.499    167475.78  12612425.00
    2507.999    165082.22  12454155.00
    2509.499    164593.15  12419435.00
    2510.999    160803.78  12317591.00
    2512.499    161534.78  12372812.00
    2513.999    166185.98  12546453.00
    2515.499    168996.95  12537014.00
    2516.999    173551.06  12573270.00
    2518.499    177557.35  12665798.00
    2519.999    174988.44  12446765.00
    2521.499    175596.00  12770064.00
    2522.999    170255.31  12522439.00
    2524.499    169665.00  12775509.00
    2525.999    167186.63  12687758.00
    2527.499    169292.50  12739680.00
    2528.999    170785.42  12589167.00
    2530.499    170718.54  12638411.00
    2531.999    170279.09  12707100.00
    2533.500    167136.27  12477964.00
    2534.999    165222.57  12391435.00
    2536.500    160767.66  11953403.00
    2538.000    164706.02  12184980.00
    2539.499    164853.74  11983025.00
    2540.999    162973.95  11934633.00
    2542.499    157339.36  11611537.00
    2543.999    153572.32  11551510.00
