#XDI/1.1  GSE/2.0
# Column.1: energy eV
# Column.2: ifluor
# Column.3: i0
# Scan.end_time: 2018-02-22 15:17:36
# Scan.start_time: 2018-02-22 15:12:33
# Element.symbol:  S
# Element.edge:  K
# Mono.d_spacing:  3.13477
# Mono.name: Si 111
# Sample.formula: MgS
# Sample.name: magnesium sulfide
# Sample.prep: powder on tape halogen-free tape
# Sample.temperature: room temperature
# Facility.Name:  APS
# Beamline.Name:  13-ID-E
# Beamline.xray_source:  3.6cm undulator
# Beamline.I0: He,  20 cm
# Beamline.If: 4-element SDD (Vortex ME-4)
# ScanParameters.ScanType: xafs
# ScanParameters.E0: 2472.000
# ScanParameters.Legend:  Start, Stop, Step, K-space, Time
# ScanParameters.Region1:    -25.000,   -10.000,     1.500  False  1.00
# ScanParameters.Region2:    -10.000,    15.000,     0.100  False  1.00
# ScanParameters.Region3:     15.000,    75.000,     1.500  False  1.00
#-------------------------
#  energy  ifluor  i0
    2446.999      3559.58   9490185.00
    2448.498      3329.52   9645357.00
    2449.998      3558.58  10154401.00
    2451.498      3888.70  10540371.00
    2452.998      4418.86  11526708.00
    2454.498      4528.90  11744088.00
    2455.999      4524.89  11880820.00
    2457.499      4757.97  11849967.00
    2458.999      4836.99  11854714.00
    2460.412      4958.03  11570631.00
    2461.475      4983.04  11421499.00
    2462.013      5096.07  11394340.00
    2462.200      5323.17  11405913.00
    2462.301      5299.16  11357123.00
    2462.402      5237.12  11272207.00
    2462.501      5297.16  11420635.00
    2462.601      5291.17  11398135.00
    2462.702      5345.16  11352102.00
    2462.802      5315.15  11260579.00
    2462.902      5447.22  11395755.00
    2463.002      5465.20  11359102.00
    2463.101      5456.21  11249911.00
    2463.201      5421.20  11230170.00
    2463.302      5564.25  11319049.00
    2463.402      5515.24  11333146.00
    2463.501      5703.30  11311503.00
    2463.601      5643.26  11253661.00
    2463.701      5634.29  11263311.00
    2463.801      5689.30  11190401.00
    2463.902      5478.22  11180766.00
    2464.002      5720.31  11239552.00
    2464.101      5663.29  11152393.00
    2464.201      5820.34  11183650.00
    2464.301      5844.36  11205244.00
    2464.401      5972.41  11272729.00
    2464.501      6028.45  11272598.00
    2464.601      6021.43  11243404.00
    2464.702      6180.49  11295028.00
    2464.802      6196.50  11304292.00
    2464.901      6400.59  11316729.00
    2465.002      6382.56  11248230.00
    2465.102      6429.62  11335128.00
    2465.202      6480.60  11301180.00
    2465.302      6629.67  11367510.00
    2465.402      6719.73  11414456.00
    2465.501      6736.74  11418754.00
    2465.601      6950.84  11450251.00
    2465.701      6993.86  11390657.00
    2465.801      6914.86  11474995.00
    2465.901      7207.94  11530416.00
    2466.001      7162.92  11482590.00
    2466.101      7276.98  11497639.00
    2466.201      7493.11  11530834.00
    2466.302      7529.10  11512652.00
    2466.401      7683.15  11505026.00
    2466.502      7600.14  11521976.00
    2466.602      7747.21  11523738.00
    2466.702      7956.33  11543362.00
    2466.802      8095.38  11514803.00
    2466.901      8237.49  11550782.00
    2467.001      8315.50  11546506.00
    2467.102      8505.59  11562999.00
    2467.202      8679.72  11526685.00
    2467.301      8845.84  11511417.00
    2467.402      8859.82  11475240.00
    2467.502      8992.86  11474986.00
    2467.602      9408.09  11450875.00
    2467.701      9323.07  11391767.00
    2467.801      9487.12  11434086.00
    2467.902      9909.47  11494606.00
    2468.002     10037.47  11506661.00
    2468.101     10335.67  11507610.00
    2468.201     10707.91  11453127.00
    2468.301     11024.16  11431492.00
    2468.401     11052.15  11416276.00
    2468.502     11445.42  11421115.00
    2468.602     11386.37  11304841.00
    2468.701     12028.79  11409403.00
    2468.801     12020.85  11476476.00
    2468.901     12577.29  11479132.00
    2469.001     12835.51  11412270.00
    2469.101     13440.96  11413714.00
    2469.201     13945.36  11360209.00
    2469.301     14612.94  11387327.00
    2469.401     14995.23  11416032.00
    2469.501     16216.42  11401134.00
    2469.601     16810.08  11372064.00
    2469.701     17592.89  11329949.00
    2469.802     18624.86  11363010.00
    2469.901     19702.07  11394155.00
    2470.002     20927.67  11439761.00
    2470.101     21953.99  11481768.00
    2470.201     22956.34  11510206.00
    2470.302     24039.65  11474760.00
    2470.402     25298.54  11487094.00
    2470.502     26998.17  11499653.00
    2470.601     28360.53  11523857.00
    2470.701     30442.09  11440830.00
    2470.801     32811.15  11484146.00
    2470.901     35193.86  11440619.00
    2471.001     38491.85  11409442.00
    2471.101     42408.06  11450305.00
    2471.202     47043.90  11543170.00
    2471.301     51810.28  11560502.00
    2471.401     56543.79  11586283.00
    2471.502     62868.33  11552774.00
    2471.601     69519.09  11609768.00
    2471.701     76608.28  11678565.00
    2471.802     84179.81  11712529.00
    2471.902     91429.54  11673312.00
    2472.002     99471.62  11622044.00
    2472.102    107321.25  11590309.00
    2472.201    116410.80  11594955.00
    2472.301    124508.33  11620047.00
    2472.401    132481.19  11608216.00
    2472.502    139604.29  11561017.00
    2472.601    148562.14  11635373.00
    2472.702    155701.71  11620372.00
    2472.802    163417.10  11619142.00
    2472.902    171674.20  11647441.00
    2473.001    178420.04  11655651.00
    2473.101    184007.26  11677698.00
    2473.201    189696.01  11664086.00
    2473.301    193935.32  11681705.00
    2473.402    196116.23  11667724.00
    2473.502    198476.69  11670705.00
    2473.601    198461.25  11624547.00
    2473.701    198623.85  11655003.00
    2473.801    195831.04  11674623.00
    2473.902    195239.77  11642502.00
    2474.002    193517.57  11660463.00
    2474.102    190973.82  11677545.00
    2474.202    190379.54  11735900.00
    2474.302    190552.24  11753087.00
    2474.401    188480.49  11660666.00
    2474.501    191778.86  11827330.00
    2474.602    193795.85  11819840.00
    2474.702    195560.92  11799631.00
    2474.801    196614.50  11783830.00
    2474.902    199196.15  11856716.00
    2475.001    200864.30  11841661.00
    2475.101    201703.34  11894814.00
    2475.201    200170.10  11860651.00
    2475.301    198720.11  11828225.00
    2475.401    198593.99  11810371.00
    2475.501    197164.02  11846453.00
    2475.601    194942.01  11853477.00
    2475.701    194996.80  11857007.00
    2475.801    194791.53  11889070.00
    2475.902    193692.18  11827490.00
    2476.002    194217.45  11832623.00
    2476.101    194414.30  11845130.00
    2476.201    193767.70  11826256.00
    2476.301    194872.21  11545187.00
    2476.401    194848.12  11938035.00
    2476.502    196152.58  11899610.00
    2476.602    195846.43  11651088.00
    2476.702    195219.39  11871636.00
    2476.801    197375.06  11962052.00
    2476.902    198568.46  12030147.00
    2477.002    197794.62  12018560.00
    2477.102    197472.61  12013953.00
    2477.202    195230.34  11976209.00
    2477.302    195244.57  11992705.00
    2477.402    194267.45  12001449.00
    2477.501    192803.77  11965595.00
    2477.602    189237.04  11877095.00
    2477.702    186591.90  11694852.00
    2477.802    184843.55  11913109.00
    2477.901    180939.95  11822701.00
    2478.001    176854.94  11628519.00
    2478.101    173202.53  11904705.00
    2478.202    169904.36  11963307.00
    2478.302    167025.72  11982168.00
    2478.402    164266.84  11986044.00
    2478.502    161815.33  11924881.00
    2478.602    158219.09  11953841.00
    2478.702    157112.02  12015717.00
    2478.802    154950.99  11991124.00
    2478.902    151439.48  11935612.00
    2479.001    149859.20  11988891.00
    2479.101    148562.93  12045488.00
    2479.201    147050.24  12050466.00
    2479.301    145551.14  11993982.00
    2479.401    144044.03  11982476.00
    2479.502    143905.12  12014823.00
    2479.602    143679.01  12045482.00
    2479.702    143818.58  11971830.00
    2479.801    143942.20  11943576.00
    2479.901    145733.95  11980632.00
    2480.002    147055.98  12015471.00
    2480.102    147923.95  11945526.00
    2480.202    149962.01  12014191.00
    2480.301    150503.65  12009768.00
    2480.401    152201.01  12054950.00
    2480.501    153134.85  12087214.00
    2480.601    154369.65  12112889.00
    2480.701    153169.91  12008936.00
    2480.801    154227.76  12011400.00
    2480.901    154545.60  12124399.00
    2481.001    153634.67  12080431.00
    2481.101    152635.44  12119034.00
    2481.201    151939.90  12119592.00
    2481.301    150571.37  12058125.00
    2481.401    149388.69  12085794.00
    2481.501    149044.76  12107515.00
    2481.601    148969.69  12087750.00
    2481.701    147782.25  12084945.00
    2481.802    148441.06  12170012.00
    2481.901    147758.23  12159340.00
    2482.001    147217.00  12210516.00
    2482.102    147148.82  12226797.00
    2482.202    147752.27  12227111.00
    2482.301    146954.23  12217576.00
    2482.402    146059.48  12194278.00
    2482.502    146332.98  12195125.00
    2482.601    145292.81  12168935.00
    2482.702    144749.61  12198043.00
    2482.802    143478.83  12184240.00
    2482.902    144441.15  12235758.00
    2483.002    143771.80  12269981.00
    2483.102    143677.90  12255397.00
    2483.202    143415.22  12219266.00
    2483.302    142338.98  12144293.00
    2483.402    142964.33  12170423.00
    2483.502    143732.54  12276976.00
    2483.602    143997.92  12207216.00
    2483.702    143585.46  12204974.00
    2483.802    145142.51  12268729.00
    2483.902    146057.95  12315228.00
    2484.002    146455.83  12295949.00
    2484.102    147051.47  12325086.00
    2484.202    147866.13  12304544.00
    2484.301    148888.03  12218029.00
    2484.401    149659.74  12234701.00
    2484.501    151082.16  12262945.00
    2484.601    151605.92  12228640.00
    2484.702    152781.85  12180842.00
    2484.802    153612.03  12125833.00
    2484.902    154265.43  12135909.00
    2485.002    156055.07  12157843.00
    2485.102    156253.40  12106440.00
    2485.202    157246.37  12114342.00
    2485.301    157266.40  12103943.00
    2485.401    157600.25  12065614.00
    2485.502    158527.67  12041306.00
    2485.602    158784.60  12114146.00
    2485.701    158934.53  12102168.00
    2485.801    159797.20  12134962.00
    2485.901    160174.20  12103932.00
    2486.001    160421.11  12118755.00
    2486.102    160008.28  12061719.00
    2486.202    159811.03  12015585.00
    2486.302    160463.49  12131817.00
    2486.401    161151.40  12135825.00
    2486.501    160765.63  12139635.00
    2486.602    161846.57  12132027.00
    2486.701    160618.31  12138904.00
    2486.801    162875.33  12314807.00
    2486.989    165406.56  12499670.00
    2487.526    167502.79  12665350.00
    2488.588    162144.97  12454816.00
    2490.000    155548.21  12577776.00
    2491.499    147855.05  12657447.00
    2492.999    142028.38  12532314.00
    2494.499    138735.73  12186959.00
    2495.999    140356.94  12196819.00
    2497.499    143127.17  12231480.00
    2498.999    146761.16  12162154.00
    2500.499    156032.97  12533754.00
    2501.999    160679.90  12585535.00
    2503.499    163536.32  12529176.00
    2504.999    168236.48  12737910.00
    2506.499    166299.88  12729239.00
    2507.999    161217.08  12327533.00
    2509.499    162096.55  12361336.00
    2510.999    159450.75  12248344.00
    2512.499    160279.15  12468048.00
    2513.999    164799.85  12621436.00
    2515.499    167341.67  12560263.00
    2516.999    173122.02  12665945.00
    2518.499    173405.53  12570054.00
    2519.999    177439.91  12883005.00
    2521.499    174531.28  12824383.00
    2522.999    171915.54  12839517.00
    2524.499    168243.96  12775781.00
    2525.999    166217.18  12836751.00
    2527.499    169673.24  12900574.00
    2528.999    170513.85  12772451.00
    2530.499    169634.58  12687017.00
    2531.999    167916.61  12640956.00
    2533.500    166791.78  12621301.00
    2534.999    159494.20  12063386.00
    2536.499    160563.16  12136089.00
    2537.999    166662.38  12431425.00
    2539.499    165181.21  12271829.00
    2541.000    163742.81  12162979.00
    2542.500    158143.64  11941842.00
    2544.000    155416.59  11991049.00
