#XDI/1.1  GSE/2.0
# Column.1: energy eV
# Column.2: ifluor
# Column.3: i0
# Scan.start_time: 2018-02-22 15:04:17
# Scan.end_time: 2018-02-22 15:09:21
# Element.symbol:  S
# Element.edge:  K
# Mono.d_spacing:  3.13477
# Mono.name: Si 111
# Sample.formula: MgS
# Sample.name: magnesium sulfide
# Sample.prep: powder on tape halogen-free tape
# Sample.temperature: room temperature
# Facility.Name:  APS
# Beamline.Name:  13-ID-E
# Beamline.xray_source:  3.6cm undulator
# Beamline.I0: He, 200 cm
# Beamline.If: 4-element SDD (Vortex ME-4)
# ScanParameters.ScanType: xafs
# ScanParameters.E0: 2472.000
# ScanParameters.Legend:  Start, Stop, Step, K-space, Time
# ScanParameters.Region1:    -25.000,   -10.000,     1.500  False  1.00
# ScanParameters.Region2:    -10.000,    15.000,     0.100  False  1.00
# ScanParameters.Region3:     15.000,    75.000,     1.500  False  1.00
#-------------------------
#  energy  ifluor  i0
    2446.999      3198.46   9716351.00
    2448.498      3289.48   9818387.00
    2449.998      3189.46   9917596.00
    2451.498      3529.56  10627222.00
    2452.998      3759.61  11044427.00
    2454.498      3939.68  11395842.00
    2455.999      4145.74  11824083.00
    2457.499      4166.74  11690260.00
    2458.999      4318.79  11614762.00
    2460.412      4413.80  11232055.00
    2461.475      4464.81  11049018.00
    2462.012      4701.90  11062983.00
    2462.200      4694.88  11071699.00
    2462.301      4733.92  11092366.00
    2462.401      4824.93  11152672.00
    2462.501      4701.89  11140251.00
    2462.601      4661.89  11071113.00
    2462.701      4700.88  11061394.00
    2462.801      4769.91  11178060.00
    2462.902      4779.90  11175591.00
    2463.002      4945.99  11242277.00
    2463.102      4964.98  11209210.00
    2463.202      5085.03  11170381.00
    2463.301      5037.00  11137414.00
    2463.401      5001.00  11160066.00
    2463.501      5098.02  11152148.00
    2463.601      5177.05  11179586.00
    2463.701      5170.04  11178586.00
    2463.801      5094.03  11139687.00
    2463.902      5280.08  11118494.00
    2464.002      5057.02  10952683.00
    2464.101      5426.15  11136035.00
    2464.201      5333.10  11169507.00
    2464.301      5334.11  11148048.00
    2464.402      5497.17  11211529.00
    2464.502      5364.12  11143834.00
    2464.601      5579.19  11210556.00
    2464.701      5640.23  11276652.00
    2464.801      5653.23  11319693.00
    2464.901      5772.27  11258192.00
    2465.001      5865.30  11306798.00
    2465.102      6039.39  11374910.00
    2465.202      6064.39  11340162.00
    2465.302      6061.39  11341498.00
    2465.402      6275.46  11406708.00
    2465.502      6342.50  11502590.00
    2465.601      6585.58  11513566.00
    2465.701      6575.59  11437338.00
    2465.801      6456.54  11498273.00
    2465.901      6638.63  11474334.00
    2466.001      6853.70  11566068.00
    2466.101      6812.69  11599125.00
    2466.202      7121.86  11588252.00
    2466.302      6912.75  11544122.00
    2466.402      7120.84  11531784.00
    2466.502      7232.88  11509911.00
    2466.602      7369.94  11552257.00
    2466.702      7544.06  11590497.00
    2466.801      7564.03  11613084.00
    2466.901      7661.08  11584041.00
    2467.002      7723.12  11582615.00
    2467.101      7850.14  11580669.00
    2467.201      8112.30  11541240.00
    2467.302      8262.38  11537012.00
    2467.402      8287.44  11575635.00
    2467.501      8352.42  11559104.00
    2467.602      8458.50  11563117.00
    2467.702      8843.67  11543597.00
    2467.802      9078.80  11536177.00
    2467.901      8970.76  11499469.00
    2468.001      9232.91  11477052.00
    2468.101      9473.06  11525874.00
    2468.201      9703.14  11487971.00
    2468.301      9873.24  11510558.00
    2468.401      9883.27  11465736.00
    2468.501     10390.60  11513914.00
    2468.601     10720.77  11516262.00
    2468.701     10919.00  11554634.00
    2468.801     11429.28  11543681.00
    2468.901     11580.39  11581915.00
    2469.001     11862.58  11547564.00
    2469.101     12343.96  11512425.00
    2469.202     12921.32  11541363.00
    2469.301     13436.70  11532914.00
    2469.401     13808.07  11569733.00
    2469.501     14614.75  11620347.00
    2469.601     15094.21  11599323.00
    2469.701     16236.26  11609364.00
    2469.802     16820.92  11561224.00
    2469.902     17850.80  11514287.00
    2470.002     18476.43  11438682.00
    2470.102     19088.11  11481827.00
    2470.201     20290.52  11510932.00
    2470.302     21023.42  11486694.00
    2470.402     22468.21  11515936.00
    2470.502     23411.59  11590007.00
    2470.601     24857.67  11595402.00
    2470.701     26921.62  11621692.00
    2470.802     28625.44  11593273.00
    2470.902     30670.83  11533038.00
    2471.001     33555.06  11558060.00
    2471.101     36722.46  11596656.00
    2471.201     40138.29  11538111.00
    2471.301     44998.90  11605625.00
    2471.401     49439.99  11634138.00
    2471.502     55039.71  11623135.00
    2471.602     60672.35  11581075.00
    2471.701     67437.89  11552042.00
    2471.801     74786.85  11609013.00
    2471.901     82154.41  11639317.00
    2472.001     90961.99  11651568.00
    2472.101     98856.22  11691568.00
    2472.201    106700.91  11572900.00
    2472.301    115598.79  11617308.00
    2472.402    123478.81  11592307.00
    2472.502    131949.10  11644251.00
    2472.602    140310.73  11628948.00
    2472.701    148939.27  11617309.00
    2472.802    156162.72  11554145.00
    2472.902    162555.65  11505187.00
    2473.001    170696.92  11558129.00
    2473.101    177109.20  11615120.00
    2473.201    182355.24  11634994.00
    2473.301    186099.90  11633723.00
    2473.401    189870.85  11679005.00
    2473.502    191759.37  11665919.00
    2473.602    191096.30  11632517.00
    2473.702    192751.29  11708604.00
    2473.801    190421.94  11671729.00
    2473.901    189297.36  11662278.00
    2474.001    186411.82  11702972.00
    2474.101    185315.01  11788909.00
    2474.202    184355.31  11788541.00
    2474.301    184249.89  11845451.00
    2474.401    184736.19  11874301.00
    2474.501    184869.73  11833401.00
    2474.602    186704.49  11812697.00
    2474.701    188808.69  11791169.00
    2474.802    191770.00  11863551.00
    2474.902    193594.10  11902844.00
    2475.002    195602.78  11933402.00
    2475.101    195383.60  11895007.00
    2475.201    193987.17  11875296.00
    2475.301    193241.47  11830923.00
    2475.401    191662.91  11838238.00
    2475.501    189456.19  11815689.00
    2475.601    188477.33  11844966.00
    2475.701    187496.73  11788380.00
    2475.801    187682.24  11786151.00
    2475.901    186995.35  11848553.00
    2476.002    185903.09  11735867.00
    2476.102    188419.81  11892708.00
    2476.201    187990.29  11823294.00
    2476.301    188950.85  11583180.00
    2476.401    189172.59  12026402.00
    2476.501    190723.71  11956004.00
    2476.601    189788.33  11724320.00
    2476.701    190450.03  11951091.00
    2476.802    190659.06  11949542.00
    2476.902    192398.72  12004371.00
    2477.001    191418.34  11997144.00
    2477.102    190426.99  11977069.00
    2477.202    188669.53  11916871.00
    2477.302    189244.81  11949469.00
    2477.402    187093.77  12000505.00
    2477.502    185126.30  11985155.00
    2477.602    183576.02  11928514.00
    2477.702    179729.90  11734137.00
    2477.802    177419.18  11926875.00
    2477.902    173154.01  11812417.00
    2478.001    171197.52  11668120.00
    2478.101    166868.98  12005263.00
    2478.202    163732.67  12011489.00
    2478.301    160670.62  11993009.00
    2478.401    157408.41  11984391.00
    2478.501    153984.67  12021743.00
    2478.601    152619.34  12051496.00
    2478.701    150129.67  12004261.00
    2478.801    146784.44  11928829.00
    2478.901    145287.81  11936283.00
    2479.001    142965.43  11901915.00
    2479.101    142100.08  11976477.00
    2479.202    140235.19  11984166.00
    2479.302    138114.77  11910370.00
    2479.401    136925.58  11912103.00
    2479.501    136902.20  12000724.00
    2479.601    137124.36  11977769.00
    2479.701    137715.41  12002049.00
    2479.801    137591.93  11995931.00
    2479.901    138457.35  12028368.00
    2480.002    140478.98  12058220.00
    2480.102    141071.50  12050440.00
    2480.202    142522.65  12009965.00
    2480.302    142928.91  11991139.00
    2480.402    145229.83  12005511.00
    2480.501    145860.70  12062935.00
    2480.601    146197.24  11982184.00
    2480.701    146360.65  12008530.00
    2480.801    146651.94  12031097.00
    2480.901    145969.74  12048594.00
    2481.001    145800.33  12048330.00
    2481.101    145747.28  12153499.00
    2481.201    144506.19  12137470.00
    2481.301    144438.38  12227012.00
    2481.401    142543.57  12175938.00
    2481.501    142202.75  12170537.00
    2481.601    141152.61  12147262.00
    2481.702    140423.60  12140220.00
    2481.802    139797.36  12138444.00
    2481.902    138942.50  12116208.00
    2482.001    138424.74  12157642.00
    2482.102    138040.54  12181105.00
    2482.201    137785.43  12156801.00
    2482.301    138292.53  12172379.00
    2482.401    138298.40  12191520.00
    2482.501    136841.33  12175678.00
    2482.601    136236.06  12152758.00
    2482.701    137046.43  12157374.00
    2482.802    136477.27  12166233.00
    2482.902    136928.75  12153732.00
    2483.002    136174.20  12150048.00
    2483.102    136803.11  12200069.00
    2483.202    137583.58  12216155.00
    2483.302    137431.76  12239484.00
    2483.402    136575.07  12198180.00
    2483.501    137022.34  12199968.00
    2483.601    136350.67  12129287.00
    2483.701    137822.89  12190373.00
    2483.801    137890.03  12214334.00
    2483.902    137492.30  12176980.00
    2484.002    139349.22  12190457.00
    2484.102    139431.65  12158639.00
    2484.202    141252.17  12170742.00
    2484.301    141967.08  12165178.00
    2484.401    142714.17  12162480.00
    2484.501    143570.04  12167940.00
    2484.601    145388.40  12203754.00
    2484.701    146641.69  12211475.00
    2484.801    147006.65  12205236.00
    2484.901    149640.00  12220833.00
    2485.001    149246.89  12190055.00
    2485.102    150520.52  12178128.00
    2485.202    151513.05  12157561.00
    2485.302    151141.66  12087710.00
    2485.402    150476.63  12012019.00
    2485.501    150661.92  11954105.00
    2485.601    151228.94  12009243.00
    2485.701    151041.39  11916440.00
    2485.801    151825.18  11916372.00
    2485.901    152236.05  11955651.00
    2486.001    152902.13  11961663.00
    2486.101    152509.17  11972705.00
    2486.201    153903.53  12029515.00
    2486.301    153618.24  12031295.00
    2486.402    154205.17  11998158.00
    2486.502    154116.94  12066866.00
    2486.602    155665.61  12090460.00
    2486.701    155420.26  12133240.00
    2486.801    157484.87  12289787.00
    2486.989    160527.12  12569184.00
    2487.526    163180.39  12736271.00
    2488.588    159914.65  12784554.00
    2490.000    150365.93  12679916.00
    2491.499    142124.03  12657192.00
    2492.999    135108.36  12512219.00
    2494.499    133038.14  12243313.00
    2495.999    133297.48  12296803.00
    2497.499    134886.69  12198119.00
    2498.999    139956.39  12205784.00
    2500.499    145814.49  12306892.00
    2501.999    151698.47  12439684.00
    2503.499    157123.13  12535399.00
    2504.999    159426.38  12623976.00
    2506.499    159177.63  12653361.00
    2507.999    155207.69  12427847.00
    2509.499    155080.82  12378910.00
    2510.999    153917.95  12405856.00
    2512.499    155676.49  12646017.00
    2513.999    156740.94  12499377.00
    2515.499    160992.59  12660568.00
    2516.999    165996.05  12687063.00
    2518.499    168514.44  12672434.00
    2519.999    168926.88  12799370.00
    2521.499    166727.79  12717057.00
    2522.999    163652.11  12800790.00
    2524.499    160476.50  12720190.00
    2525.999    161329.86  12906346.00
    2527.499    160811.34  12786260.00
    2528.999    159963.25  12660024.00
    2530.499    162628.08  12739695.00
    2531.999    161165.77  12714998.00
    2533.499    155399.28  12332195.00
    2534.999    151909.00  12040662.00
    2536.499    156697.51  12424055.00
    2538.000    157480.98  12254897.00
    2539.499    158837.76  12338333.00
    2540.999    155610.74  12134297.00
    2542.500    152435.90  12007305.00
    2543.999    149212.54  11947230.00
