#XDI/1.1  GSE/1.0
# Column.1: energy eV
# Column.2: ifluor
# Column.3: i0
# Scan.end_time: 2013-07-29 16:09:03
# Scan.start_time: 2013-07-29 15:58:50
# Element.symbol:  S
# Element.edge:  K
# Mono.d_spacing:  3.13477
# Mono.name: Si 111
# Sample.formula: NaSO3
# Sample.name: sodium sulfite
# Sample.prep: powder on halogen-free tape
# Sample.temperature: room temperature
# Facility.Name:  APS
# Beamline.Name:  13-ID-E
# Beamline.xray_source:  3.6cm undulator
# Beamline.I0: He, 200 cm
# Beamline.If: 4-element SDD (Vortex ME-4)
# ScanParameters.ScanType: xafs
# ScanParameters.E0: 2472.000
# ScanParameters.Start: Scan.Member: Value
# ScanParameters.E0: 2472.00
# ScanParameters.Legend: Start       Stop       Step       Npts       Time   Kspace?
# ScanParameters.Region1: 2450.0     2468.0     1.0000     19.000     2.0000   0
# ScanParameters.Region2: 2468.0     2500.0    0.20000     161.00     2.0000   0
# ScanParameters.Region3: 2500.0     2550.0     1.0000     51.000     2.0000   0
#-------------------------
#  energy  ifluor  i0
    2450.000     16821.7321    334608.00
    2451.000     17017.4593    334249.00
    2452.000     17208.5184    335152.00
    2453.000     16781.0948    339938.00
    2454.000     16683.2326    341451.00
    2455.000     16635.8185    343541.00
    2456.000     16521.3965    344595.00
    2457.000     16551.9852    346309.00
    2458.000     16309.9068    346885.00
    2459.000     16109.7549    348972.00
    2460.000     16194.9715    349073.00
    2461.000     16029.8765    351828.00
    2462.000     15852.1143    352047.00
    2463.000     16119.9629    351667.00
    2464.000     15887.1763    354560.00
    2465.000     15851.6720    356177.00
    2466.000     16259.3798    354538.00
    2467.001     16135.9322    358319.00
    2468.000     16146.6985    362886.00
    2468.200     16179.5250    363050.00
    2468.400     16115.5433    363088.00
    2468.600     16567.5785    364799.00
    2468.800     16472.4984    365239.00
    2469.001     16130.1140    366431.00
    2469.200     16435.2240    365350.00
    2469.400     16411.5372    365308.00
    2469.600     16293.0687    365616.00
    2469.800     16465.3743    366630.00
    2470.000     16711.7382    367443.00
    2470.201     16750.2652    368154.00
    2470.400     16624.7606    369253.00
    2470.601     16876.9695    368264.00
    2470.800     16680.2858    368560.00
    2470.999     17261.2811    369285.00
    2471.199     17322.6214    369462.00
    2471.400     17465.8765    369979.00
    2471.600     17492.2136    370992.00
    2471.800     17631.0273    369941.00
    2472.000     17923.1950    370521.00
    2472.201     18032.1583    370454.00
    2472.399     18146.8360    371304.00
    2472.600     19012.1124    374275.00
    2472.800     19202.1597    374102.00
    2472.999     19437.9043    374309.00
    2473.199     19720.7759    373774.00
    2473.400     20577.2795    374186.00
    2473.601     21275.0073    373675.00
    2473.800     21688.2684    375186.00
    2474.000     22083.8213    375776.00
    2474.200     22276.5193    376419.00
    2474.400     22916.8209    375876.00
    2474.600     23400.4387    376330.00
    2474.799     23965.1453    376464.00
    2475.000     24626.4153    376975.00
    2475.199     26676.4901    376958.00
    2475.400     28394.4343    378041.00
    2475.599     30615.1127    377405.00
    2475.800     34355.0921    376699.00
    2476.000     39322.0039    377166.00
    2476.200     46866.9745    377708.00
    2476.400     57319.7068    378117.00
    2476.599     72795.6568    378365.00
    2476.801     88954.9673    378263.00
    2477.000    101791.4991    378190.00
    2477.200    108727.2171    378067.00
    2477.400    109545.1047    378243.00
    2477.600    105981.9591    378051.00
    2477.800     98633.3188    378891.00
    2478.000     86803.9648    379532.00
    2478.200     73731.8549    379016.00
    2478.400     65397.3028    379201.00
    2478.601     60402.2545    379180.00
    2478.800     59597.9368    378575.00
    2479.000     61477.9759    378385.00
    2479.201     61647.0743    378556.00
    2479.400     60728.4771    378645.00
    2479.601     59041.5522    378344.00
    2479.801     58547.6387    377058.00
    2480.000     59321.8542    376427.00
    2480.200     62603.0231    376593.00
    2480.399     65086.5226    377361.00
    2480.601     66076.0451    377391.00
    2480.801     66360.4218    377703.00
    2481.000     66428.9972    377409.00
    2481.200     65767.7418    377039.00
    2481.400     64037.4349    374301.00
    2481.600     63260.5354    379099.00
    2481.800     60260.6117    378136.00
    2482.000     57827.8627    377160.00
    2482.200     55292.0802    376560.00
    2482.400     53354.1106    375688.00
    2482.600     52896.6128    375671.00
    2482.800     52327.5388    373512.00
    2483.000     52488.1813    371649.00
    2483.200     52403.4004    372017.00
    2483.400     51992.0773    368206.00
    2483.600     52102.7331    367325.00
    2483.800     51468.4755    365185.00
    2484.000     51076.2994    362496.00
    2484.200     50505.3811    359968.00
    2484.400     49835.6610    357148.00
    2484.601     49058.9539    355478.00
    2484.798     48233.3453    351828.00
    2485.000     47259.8252    349189.00
    2485.200     45771.9889    345734.00
    2485.400     44700.4852    341387.00
    2485.600     43058.9751    339450.00
    2485.800     42783.8668    334605.00
    2486.000     42665.1651    333149.00
    2486.200     42072.1488    329845.00
    2486.400     41718.2357    325179.00
    2486.600     41755.0560    322844.00
    2486.800     42026.0873    321561.00
    2487.001     41292.8231    318703.00
    2487.201     41141.9446    314304.00
    2487.401     40958.2422    312770.00
    2487.600     40531.9259    310012.00
    2487.800     40060.6712    308261.00
    2487.999     39517.5906    304908.00
    2488.200     39335.7910    301966.00
    2488.399     39682.8051    300605.00
    2488.600     38668.7421    297449.00
    2488.800     38988.8032    294897.00
    2488.999     39394.7661    293746.00
    2489.200     39085.0666    289720.00
    2489.400     38688.6621    286997.00
    2489.600     38622.3814    284579.00
    2489.800     37886.6482    280819.00
    2490.000     37749.1193    278696.00
    2490.200     36757.2052    272697.00
    2490.400     35653.3218    270604.00
    2490.600     35295.1351    268239.00
    2490.802     34453.9061    264414.00
    2491.000     33971.1876    262387.00
    2491.200     33709.2135    262320.00
    2491.400     33142.5454    258127.00
    2491.600     32575.7825    256463.00
    2491.800     32367.4780    253596.00
    2492.000     32389.3880    251884.00
    2492.200     31701.2767    248699.00
    2492.398     31848.0725    246485.00
    2492.600     31536.2398    243124.00
    2492.800     31850.6802    242462.00
    2493.000     31451.8958    238878.00
    2493.200     31636.2635    236686.00
    2493.400     31063.0282    234486.00
    2493.600     31245.0743    232488.00
    2493.800     30995.6396    229494.00
    2494.000     30467.8522    226167.00
    2494.200     30551.1233    224375.00
    2494.400     30265.9986    221789.00
    2494.600     30066.1255    221052.00
    2494.801     30021.4311    216855.00
    2495.000     29660.7206    215005.00
    2495.199     29457.2371    211229.00
    2495.400     29446.3686    211428.00
    2495.599     29199.6826    207323.00
    2495.801     29043.3124    205173.00
    2495.999     29349.0873    203296.00
    2496.200     28357.6519    198884.00
    2496.400     28463.3084    197087.00
    2496.600     28307.1073    194561.00
    2496.801     28173.2285    191624.00
    2496.999     27191.8572    189312.00
    2497.200     27443.8913    187391.00
    2497.400     26923.0989    185577.00
    2497.600     26298.1182    183771.00
    2497.800     26055.5219    181200.00
    2498.001     25347.4121    179524.00
    2498.200     25048.4951    177347.00
    2498.400     24430.4319    175198.00
    2498.600     23984.0703    172154.00
    2498.800     23932.1478    170255.00
    2498.999     22818.7264    166557.00
    2499.201     22427.2305    164472.00
    2499.400     21829.9619    161268.00
    2499.599     21454.5561    158977.00
    2499.801     20489.6467    155770.00
    2500.000     20163.7556    153077.00
    2501.001     48119.4856    395645.00
    2502.000     47320.4237    396854.00
    2503.001     46836.3999    396924.00
    2504.001     46312.6196    398289.00
    2505.000     45536.4574    397073.00
    2506.001     45193.3015    394463.00
    2507.000     44339.4548    393336.00
    2508.000     44905.2630    393141.00
    2509.000     44832.1613    392554.00
    2510.000     44648.1169    390047.00
    2511.001     44399.7780    388894.00
    2512.001     43605.4824    386286.00
    2513.000     43159.0129    386414.00
    2514.000     42866.6755    385359.00
    2515.001     41622.1562    382529.00
    2516.000     40963.0952    383258.00
    2517.000     40256.3516    381008.00
    2518.001     40427.6830    382000.00
    2519.000     40171.0767    383150.00
    2520.001     40466.3128    381261.00
    2521.000     41100.9827    385289.00
    2522.001     41349.8333    387126.00
    2523.001     42076.7787    388166.00
    2523.999     41536.5719    386450.00
    2525.001     41750.4155    387405.00
    2526.000     41616.3890    387759.00
    2527.000     41703.7678    385853.00
    2528.000     41996.4026    385394.00
    2529.000     42741.6536    385717.00
    2530.000     42650.1832    384450.00
    2531.000     42920.1982    384325.00
    2532.001     43396.9986    383221.00
    2533.000     43735.7820    381542.00
    2534.000     43897.3025    381814.00
    2535.001     43550.9103    375253.00
    2536.000     42650.5691    372441.00
    2537.000     43233.2395    373443.00
    2538.000     42153.2030    369987.00
    2539.001     42418.6806    370156.00
    2540.000     41671.3238    367284.00
    2541.001     41286.3312    365949.00
    2542.000     40804.3329    364798.00
    2543.000     40586.2458    364408.00
    2544.000     40491.3106    364607.00
    2545.000     39849.9499    361298.00
    2546.000     40958.8243    367359.00
    2547.001     41753.3903    370815.00
    2548.001     41051.3376    373860.00
    2549.001     42140.9529    376764.00
    2550.000     42165.1428    378822.00
