#XDI/1.1  GSE/1.0
# Column.1: energy eV
# Column.2: ifluor
# Column.3: i0
# Scan.end_time: 2014-03-09 10:05:56
# Scan.start_time: 2014-03-09 09:53:40
# Element.symbol:  S
# Element.edge:  K
# Mono.d_spacing:  3.13477
# Mono.name: Si 111
# Sample.formula: NiSO4
# Sample.name: nickel sulfate
# Sample.prep: powder on halogen-free tape
# Sample.temperature: room temperature
# Facility.Name:  APS
# Beamline.Name:  13-ID-E
# Beamline.xray_source:  3.6cm undulator
# Beamline.I0: He, 200 cm
# Beamline.If: 4-element SDD (Vortex ME-4)
# ScanParameters.ScanType: xafs
# ScanParameters.E0: 2472.000
# ScanParameters.Start: Scan.Member: Value
# ScanParameters.E0: 2472.00
# ScanParameters.Legend: Start       Stop       Step       Npts       Time   Kspace?
# ScanParameters.Region1: -22.000    -8.0000     2.0000     8.0000     2.0000   0
# ScanParameters.Region2: -8.0000     16.000    0.15000     161.00     2.0000   0
# ScanParameters.Region3: 2.0493     7.2453   0.049962     105.00     2.0000   1
#-------------------------
#  energy  ifluor  i0
    2450.000      1064.6803    101115.00
    2452.000      1318.0172    108075.00
    2454.000      1209.2823    111236.00
    2456.000      1172.9373    111636.00
    2458.000      1255.6196    113365.00
    2460.000      1266.4550    114154.00
    2462.000      1302.2626    115523.00
    2464.000      1429.6878    117110.00
    2464.150      1445.1259    117551.00
    2464.300      1384.2555    117849.00
    2464.450      1465.2481    117776.00
    2464.600      1431.7385    117845.00
    2464.750      1458.8054    117839.00
    2464.899      1378.1805    118003.00
    2465.050      1431.2798    118452.00
    2465.200      1522.2984    118231.00
    2465.351      1430.2487    118151.00
    2465.500      1544.3615    118317.00
    2465.650      1488.3362    118521.00
    2465.801      1462.3867    118675.00
    2465.950      1517.1562    119173.00
    2466.100      1489.7996    119104.00
    2466.250      1484.6187    118918.00
    2466.400      1534.8191    119007.00
    2466.550      1473.2514    119032.00
    2466.700      1556.2424    119741.00
    2466.850      1542.8096    119618.00
    2467.000      1568.0847    119902.00
    2467.150      1560.0513    119784.00
    2467.301      1487.7323    119805.00
    2467.449      1514.6397    120203.00
    2467.600      1492.7139    119137.00
    2467.751      1499.5274    119689.00
    2467.901      1569.3217    119796.00
    2468.051      1520.2334    120266.00
    2468.200      1564.0115    119918.00
    2468.350      1561.4007    119815.00
    2468.500      1581.1485    119958.00
    2468.650      1549.6017    119829.00
    2468.801      1551.9791    119283.00
    2468.951      1526.2301    119545.00
    2469.101      1619.7774    119518.00
    2469.251      1577.8198    119162.00
    2469.400      1659.3485    119237.00
    2469.550      1602.7718    118966.00
    2469.700      1608.4477    118955.00
    2469.851      1647.8487    119064.00
    2470.000      1638.8542    118508.00
    2470.150      1579.2570    118179.00
    2470.301      1603.3416    118142.00
    2470.450      1652.0830    118528.00
    2470.601      1636.5966    118658.00
    2470.750      1785.6750    118740.00
    2470.900      1726.0556    118075.00
    2471.050      1845.4078    118213.00
    2471.200      1801.6992    117844.00
    2471.351      1805.3953    118150.00
    2471.500      1875.1967    118097.00
    2471.649      1957.5399    118110.00
    2471.800      2046.4059    117609.00
    2471.950      1950.6415    117926.00
    2472.101      2026.5693    117210.00
    2472.250      2041.3345    116999.00
    2472.400      2171.1360    117139.00
    2472.550      2195.6455    117161.00
    2472.700      2370.8547    117632.00
    2472.850      2421.5506    117785.00
    2473.000      2450.9461    117939.00
    2473.150      2519.6442    117643.00
    2473.300      2531.7885    117870.00
    2473.450      2653.0019    117771.00
    2473.600      2627.7247    117452.00
    2473.750      2682.2090    117765.00
    2473.900      2764.9756    118048.00
    2474.051      2771.7918    118224.00
    2474.200      2814.1544    118258.00
    2474.351      2958.7643    118627.00
    2474.500      3002.5414    118866.00
    2474.650      3041.0975    118358.00
    2474.801      3204.1935    118506.00
    2474.950      3307.3995    118320.00
    2475.100      3249.1125    118062.00
    2475.250      3454.0071    117798.00
    2475.400      3501.4601    117651.00
    2475.550      3615.6465    117593.00
    2475.700      3730.9910    116345.00
    2475.849      4015.7456    116416.00
    2476.000      3948.3049    115759.00
    2476.150      4147.0288    114954.00
    2476.300      4304.1274    115845.00
    2476.450      4479.0501    115937.00
    2476.601      4602.8512    115260.00
    2476.750      4958.4802    115435.00
    2476.900      5224.7000    114924.00
    2477.051      5491.2369    114597.00
    2477.200      4916.7941     98053.00
    2477.351      6076.8169    114078.00
    2477.500      6369.0989    113893.00
    2477.650      6922.6116    114857.00
    2477.800      7495.9296    114341.00
    2477.949      8137.8371    114019.00
    2478.100      8653.8146    113428.00
    2478.250      9420.3825    113213.00
    2478.399     10458.9174    112875.00
    2478.551     11633.3981    112548.00
    2478.700     13341.5148    112928.00
    2478.850     15838.3999    112598.00
    2479.001     19022.5477    112735.00
    2479.150     23677.2789    112689.00
    2479.301     29860.6498    112701.00
    2479.450     36516.1908    112787.00
    2479.601     41140.3720    112940.00
    2479.751     44327.7845    113074.00
    2479.900     46196.9867    113027.00
    2480.050     47214.3352    112503.00
    2480.200     47520.0990    112049.00
    2480.351     48323.2068    112402.00
    2480.500     49726.8482    112517.00
    2480.651     53340.5685    112652.00
    2480.800     58435.8309    111939.00
    2480.950     66403.9492    112832.00
    2481.100     73971.4656    112518.00
    2481.250     81752.5484    112316.00
    2481.400     89108.3086    112548.00
    2481.550     94890.4200    112016.00
    2481.700     99104.3168    111935.00
    2481.850    103343.0997    111999.00
    2482.000    106176.3927    112004.00
    2482.150    108053.1100    112290.00
    2482.300    109626.0281    112130.00
    2482.450    110230.5373    112290.00
    2482.600    110167.1731    112040.00
    2482.750    108171.3708    112091.00
    2482.901    104420.5155    112496.00
    2483.050     99071.5978    112717.00
    2483.200     91784.0363    112469.00
    2483.350     84295.9740    112327.00
    2483.500     76645.3330    112809.00
    2483.651     69445.1409    112568.00
    2483.800     64199.3853    112504.00
    2483.950     59853.6225    112789.00
    2484.101     55848.9846    112741.00
    2484.250     53319.8677    112630.00
    2484.401     50710.1392    113345.00
    2484.551     48410.3995    113307.00
    2484.701     46411.8413    112884.00
    2484.851     45134.9578    113315.00
    2485.001     43048.9055    112878.00
    2485.150     42197.7553    113181.00
    2485.300     40859.2082    113187.00
    2485.450     39409.4392    113122.00
    2485.600     39282.6150    113823.00
    2485.750     38777.5912    114219.00
    2485.900     38405.9497    114403.00
    2486.050     37876.3181    114187.00
    2486.200     37291.3579    114146.00
    2486.351     37773.7447    114558.00
    2486.500     37735.4517    114377.00
    2486.650     37911.6712    114806.00
    2486.800     38019.3527    115023.00
    2486.950     38313.5178    115257.00
    2487.100     38740.3290    115695.00
    2487.250     39248.5632    115781.00
    2487.400     40258.9783    115902.00
    2487.551     40409.5749    116210.00
    2487.700     41557.1862    116558.00
    2487.850     42772.5230    116495.00
    2488.000     43972.2866    116429.00
    2488.790     45845.6930    118050.00
    2489.598     44581.5169    119194.00
    2490.426     52298.4973    120061.00
    2491.273     71454.5333    121307.00
    2492.139     71634.6870    122263.00
    2493.023     63303.8986    122902.00
    2493.927     59782.4493    123920.00
    2494.851     57169.3134    125216.00
    2495.793     65891.8160    126745.00
    2496.753     72736.0055    128153.00
    2497.733     76817.7291    129157.00
    2498.731     81017.7213    129020.00
    2499.749     85803.8518    128963.00
    2500.786     83050.0950    129466.00
    2501.843     72473.3481    130111.00
    2502.918     66120.0361    130900.00
    2504.012     62919.9259    131849.00
    2505.125     62306.4466    133539.00
    2506.257     60735.5743    134263.00
    2507.408     59332.6680    135129.00
    2508.578     60273.7971    137110.00
    2509.767     62435.6061    138237.00
    2510.975     63244.6462    138985.00
    2512.202     64327.5124    140138.00
    2513.448     64724.6424    142347.00
    2514.714     63690.4568    143243.00
    2515.998     62726.5944    144615.00
    2517.301     62736.8427    145466.00
    2518.623     62752.0115    147062.00
    2519.965     61907.9110    148522.00
    2521.325     61863.3797    149151.00
    2522.704     61112.6591    148855.00
    2524.102     61679.1964    148611.00
    2525.520     63611.1646    148876.00
    2526.957     65279.5646    149776.00
    2528.412     66304.7072    151107.00
    2529.886     68864.8925    152243.00
    2531.379     70934.3239    153671.00
    2532.892     71204.0942    155197.00
    2534.424     70607.7622    156813.00
    2535.974     71431.5596    157644.00
    2537.544     71014.2727    158498.00
    2539.132     71497.7912    159462.00
    2540.740     71451.9957    159642.00
    2542.367     71945.5286    159480.00
    2544.011     72012.2474    158584.00
    2545.676     72062.7480    157072.00
    2547.360     73088.1800    156869.00
    2549.063     74327.1043    157290.00
    2550.785     75508.6469    156368.00
    2552.527     77703.5695    156014.00
    2554.285     79181.6045    155923.00
    2556.064     79944.7083    157311.00
    2557.862     80190.7959    157877.00
    2559.679     79358.3960    158248.00
    2561.514     80254.6305    159432.00
    2563.370     80297.7378    159744.00
    2565.243     82094.3605    160245.00
    2567.136     82093.1365    158358.00
    2569.048     83614.0101    158313.00
    2570.979     83639.3747    156854.00
    2572.929     81992.5761    153743.00
    2574.898     81836.9576    154864.00
    2576.886     82420.3145    155638.00
    2578.893     82268.4472    153638.00
    2580.919     84375.5663    156510.00
    2582.964     84662.6970    156173.00
    2585.029     85050.7514    155836.00
    2587.111     84383.8426    155579.00
    2589.213     84058.8787    156144.00
    2591.334     82320.2394    154610.00
    2593.474     82360.2030    154757.00
    2595.633     80148.9078    152922.00
    2597.812     78130.7777    149048.00
    2600.009     73557.3997    143691.00
    2602.225     68900.0039    132811.00
    2604.461     70370.6506    136794.00
    2606.715     69386.4702    135747.00
    2608.988     69963.6222    136994.00
    2611.281     71329.6804    138865.00
    2613.592     69623.1243    135776.00
    2615.923     69733.8776    133857.00
    2618.271     68462.7010    131730.00
    2620.640     69169.0485    132625.00
    2623.027     68162.8847    130577.00
    2625.433     67504.1329    127784.00
    2627.860     65945.0874    123819.00
    2630.304     65536.1120    120787.00
    2632.767     59807.0776    109468.00
    2635.250     59027.3646    106438.00
    2637.751     58281.9494    105102.00
    2640.272     56205.0742    101680.00
    2642.812     53925.6852     96749.00
    2645.370     49795.1757     90209.00
    2647.948     46183.7109     84074.00
    2650.544     41908.6383     75794.00
    2653.160     38309.6633     69447.00
    2655.795     33687.1171     61110.00
    2658.449     29194.6738     51839.00
    2661.121     24678.5304     44171.00
    2663.814     21386.3152     37269.00
    2666.524     17255.8922     29325.00
    2669.254     13055.7554     21690.00
    2672.002     12142.4554     19409.00
