#XDI/1.1  GSE/1.0
# Column.1: energy eV
# Column.2: ifluor
# Column.3: i0
# Scan.end_time: 2014-03-09 11:57:22
# Scan.start_time: 2014-03-09 11:45:01
# Element.symbol:  S
# Element.edge:  K
# Mono.d_spacing:  3.13477
# Mono.name: Si 111
# Sample.formula: (Fe,Ni)9S8
# Sample.name: pentlandite
# Sample.prep: powder on halogen-free tape
# Sample.temperature: room temperature
# Facility.Name:  APS
# Beamline.Name:  13-ID-E
# Beamline.xray_source:  3.6cm undulator
# Beamline.I0: He,  20 cm
# Beamline.If: 4-element SDD (Vortex ME-4)
# ScanParameters.ScanType: xafs
# ScanParameters.E0: 2472.000
# ScanParameters.Start: Scan.Member: Value
# ScanParameters.E0: 2472.00
# ScanParameters.Legend: Start       Stop       Step       Npts       Time   Kspace?
# ScanParameters.Region1: -22.000    -8.0000     2.0000     8.0000     2.0000   0
# ScanParameters.Region2: -8.0000     16.000    0.15000     161.00     2.0000   0
# ScanParameters.Region3: 2.0493     7.2453   0.049962     105.00     2.0000   1
#-------------------------
#  energy  ifluor  i0
    2449.999       886.8086    100065.00
    2452.001       991.8176    108536.00
    2454.000      1007.5377    110575.00
    2456.000      1140.9226    113228.00
    2458.000      1122.5921    114647.00
    2460.001      1220.6507    116322.00
    2462.000      1406.9329    117295.00
    2464.000      1544.8619    118525.00
    2464.150      1564.2261    118157.00
    2464.301      1571.9611    118158.00
    2464.450      1653.5344    117644.00
    2464.600      1758.1675    117174.00
    2464.750      1683.6792    117094.00
    2464.900      1740.6765    116959.00
    2465.050      1773.8204    116087.00
    2465.200      1907.4527    115918.00
    2465.350      1912.3803    115358.00
    2465.500      1863.6382    115009.00
    2465.650      2011.1627    114791.00
    2465.801      2044.9224    114077.00
    2465.950      2134.2168    113550.00
    2466.101      2151.5566    112872.00
    2466.250      2234.3951    112830.00
    2466.400      2155.1312    112179.00
    2466.550      2412.6249    111871.00
    2466.700      2361.4857    111629.00
    2466.851      2568.3603    111485.00
    2467.000      2595.5126    110876.00
    2467.151      2663.6200    110856.00
    2467.300      2800.4708    110142.00
    2467.451      2910.4811    110772.00
    2467.600      3002.0020    110058.00
    2467.751      3130.6966    109925.00
    2467.900      3281.2128    108689.00
    2468.050      3522.7184    109066.00
    2468.200      3658.1496    109333.00
    2468.350      4031.6694    109888.00
    2468.500      4222.3401    109219.00
    2468.650      4708.1956    109468.00
    2468.801      5066.9527    108898.00
    2468.950      5761.9586    109639.00
    2469.100      6271.4322    109266.00
    2469.250      7122.8571    109293.00
    2469.399      8218.1289    109007.00
    2469.549      9953.5055    109349.00
    2469.700     11284.8348    108899.00
    2469.851     14674.8162    109473.00
    2470.000     17859.3003    108982.00
    2470.149     23629.1065    109210.00
    2470.300     31166.1275    109275.00
    2470.450     41049.6444    109215.00
    2470.601     50639.5239    108745.00
    2470.750     57998.9219    108736.00
    2470.900     61919.5125    108522.00
    2471.051     62419.5669    109166.00
    2471.201     58833.0438    108777.00
    2471.351     52321.1929    108621.00
    2471.501     44050.9566    108228.00
    2471.650     37556.9331    108538.00
    2471.799     32640.6505    108040.00
    2471.949     28605.1944    107776.00
    2472.100     25252.4279    107515.00
    2472.250     22677.9081    107464.00
    2472.400     20829.8724    107690.00
    2472.551     19355.0776    107354.00
    2472.700     18940.7378    107356.00
    2472.851     18280.8087    107509.00
    2473.000     17883.0841    107368.00
    2473.150     18427.1271    107751.00
    2473.301     19320.5380    108121.00
    2473.451     20796.4368    108664.00
    2473.601     23239.3071    108525.00
    2473.750     25236.2769    108829.00
    2473.900     27483.5128    109755.00
    2474.051     30248.4877    110294.00
    2474.201     32650.8697    111090.00
    2474.350     34690.0063    110656.00
    2474.501     37371.4560    110586.00
    2474.650     39108.2952    110390.00
    2474.800     40403.2061    111654.00
    2474.950     41717.5161    112371.00
    2475.099     42474.0251    112388.00
    2475.251     42479.6684    111923.00
    2475.399     42881.3508    112235.00
    2475.550     43261.6471    112677.00
    2475.701     43870.6418    112933.00
    2475.850     45657.2039    113227.00
    2476.000     45378.0309    112334.00
    2476.151     45364.9324    110414.00
    2476.301     47765.0017    114067.00
    2476.451     48882.3267    114916.00
    2476.601     48756.6084    115176.00
    2476.751     48414.6705    115523.00
    2476.900     47442.0537    116008.00
    2477.050     48674.3331    116182.00
    2477.199     42647.3734    100599.00
    2477.350     45653.0944    115846.00
    2477.500     46741.6815    116873.00
    2477.650     45184.3284    117760.00
    2477.800     44200.1192    117982.00
    2477.950     43072.3465    118398.00
    2478.101     42085.1515    118015.00
    2478.251     40692.6979    118508.00
    2478.400     39587.3213    118983.00
    2478.551     38014.7026    117347.00
    2478.700     37663.7476    119546.00
    2478.851     36836.6141    120016.00
    2479.001     36036.5717    120042.00
    2479.150     34560.0460    120346.00
    2479.301     34070.3007    120888.00
    2479.450     34394.1796    121326.00
    2479.601     32968.6355    121742.00
    2479.750     32814.3522    121934.00
    2479.900     32025.7220    122213.00
    2480.050     30944.2276    122045.00
    2480.201     30231.3336    122273.00
    2480.350     30253.1391    122734.00
    2480.500     29875.6897    122717.00
    2480.650     29284.2903    123093.00
    2480.800     29844.4559    123131.00
    2480.950     29074.8398    123542.00
    2481.100     28694.5952    123705.00
    2481.251     28434.7014    124012.00
    2481.400     27881.7325    124115.00
    2481.550     27536.0245    124242.00
    2481.700     28115.4372    124469.00
    2481.851     27863.6467    124557.00
    2482.000     27809.2724    125081.00
    2482.150     28299.3466    125139.00
    2482.300     27979.1525    125135.00
    2482.450     28995.3583    125328.00
    2482.600     29167.7031    125138.00
    2482.750     28882.4279    124925.00
    2482.900     28954.3013    124984.00
    2483.050     29628.4431    125070.00
    2483.201     29460.7432    125358.00
    2483.350     29994.1623    125298.00
    2483.500     30603.6161    125664.00
    2483.650     31004.0642    126008.00
    2483.800     30210.7567    126437.00
    2483.950     30104.0881    126578.00
    2484.100     30523.6675    127023.00
    2484.250     30213.6911    127257.00
    2484.401     30284.4377    127452.00
    2484.550     30477.2589    127775.00
    2484.700     29082.5933    128085.00
    2484.850     28608.5846    128408.00
    2485.001     28773.1625    128585.00
    2485.150     29058.3067    128775.00
    2485.301     28912.1122    128919.00
    2485.450     29009.5505    128917.00
    2485.600     28257.1614    129164.00
    2485.750     28013.8089    129227.00
    2485.900     28564.6627    129593.00
    2486.051     28878.8117    129622.00
    2486.201     28070.3691    129820.00
    2486.350     28239.9559    130393.00
    2486.500     29770.4097    130595.00
    2486.650     28671.8260    130787.00
    2486.800     28413.5988    130518.00
    2486.950     28481.7896    130584.00
    2487.101     28869.2653    130880.00
    2487.250     28798.8954    130784.00
    2487.400     28595.2569    130765.00
    2487.550     28996.5067    130953.00
    2487.699     28977.7861    130810.00
    2487.851     28927.3300    130644.00
    2488.001     29270.2839    131016.00
    2488.790     29578.7144    131417.00
    2489.598     28130.4895    132010.00
    2490.427     26844.9754    132592.00
    2491.273     26755.0135    133117.00
    2492.139     26340.2832    133181.00
    2493.024     25972.3925    133238.00
    2493.928     26459.4302    132996.00
    2494.850     25628.7660    134016.00
    2495.792     24967.2552    134428.00
    2496.752     25047.3223    134514.00
    2497.733     25843.4874    134734.00
    2498.731     25766.7059    135089.00
    2499.749     26305.5510    135256.00
    2500.786     27767.8070    135491.00
    2501.843     28164.0455    135730.00
    2502.918     29936.7380    136741.00
    2504.012     31014.4538    137174.00
    2505.125     32098.1853    138114.00
    2506.257     32385.8165    138513.00
    2507.408     32827.2689    138967.00
    2508.578     32715.2258    139637.00
    2509.767     32277.1087    140000.00
    2510.976     31618.2838    140308.00
    2512.203     32450.0420    140997.00
    2513.449     32980.1934    141271.00
    2514.713     31256.0503    141806.00
    2515.999     32648.8393    140943.00
    2517.302     33613.3462    139983.00
    2518.623     34185.2867    140538.00
    2519.965     34847.4977    140871.00
    2521.326     35433.6904    140778.00
    2522.705     35098.1353    140624.00
    2524.102     34295.1345    141307.00
    2525.519     35134.7282    141766.00
    2526.957     33737.7364    142925.00
    2528.413     34833.6850    143058.00
    2529.886     36281.6489    143335.00
    2531.380     37838.2781    143984.00
    2532.892     39459.6904    144124.00
    2534.424     41121.4452    145029.00
    2535.974     42015.3284    145366.00
    2537.544     41704.0582    145149.00
    2539.132     42547.3627    145032.00
    2540.740     42242.5900    143079.00
    2542.366     42426.7217    140875.00
    2544.012     45776.1186    143747.00
    2545.677     48015.5537    143845.00
    2547.361     47519.1792    143529.00
    2549.063     48500.3735    142481.00
    2550.785     49280.6254    141998.00
    2552.526     51177.4508    140901.00
    2554.285     52564.4976    141152.00
    2556.065     53086.1809    140882.00
    2557.862     53808.7618    141870.00
    2559.679     54261.5477    141530.00
    2561.515     53661.0010    140935.00
    2563.369     54530.6164    141266.00
    2565.243     53039.0703    140014.00
    2567.136     53919.6844    137389.00
    2569.049     52465.9296    133994.00
    2570.979     58193.1299    140535.00
    2572.928     59504.9955    139489.00
    2574.898     59136.6694    137185.00
    2576.885     60166.0004    135604.00
    2578.893     60662.5464    134277.00
    2580.919     60377.2691    132331.00
    2582.964     59811.2118    132338.00
    2585.028     61520.3018    131557.00
    2587.111     61238.0842    129995.00
    2589.213     61845.3042    130107.00
    2591.334     62628.8603    128036.00
    2593.475     61639.5480    125182.00
    2595.634     59366.3673    119858.00
    2597.812     57278.1836    111835.00
    2600.010     62825.3058    116177.00
    2602.225     61919.5588    112225.00
    2604.461     61638.3474    110186.00
    2606.714     63056.6690    106838.00
    2608.989     65977.6290    108421.00
    2611.280     64920.0122    107907.00
    2613.591     64410.5217    103792.00
    2615.922     65097.8824    103308.00
    2618.272     64249.4861    100906.00
    2620.640     65592.8568     98242.00
    2623.027     62763.9813     94501.00
    2625.434     61884.1428     92214.00
    2627.859     53586.1774     78647.00
    2630.304     53204.0513     77639.00
    2632.767     53071.1840     76303.00
    2635.251     49326.3078     73016.00
    2637.751     46599.6781     68051.00
    2640.273     41990.3001     62450.00
    2642.813     37466.6256     56574.00
    2645.370     33321.6627     51113.00
    2647.948     29083.2377     45358.00
    2650.545     25487.8025     40221.00
    2653.160     21972.6788     35163.00
    2655.795     18684.1524     29850.00
    2658.449     15219.9891     24120.00
    2661.122      9949.0394     16012.00
    2663.814      9747.3671     15547.00
    2666.524      8287.2151     13117.00
    2669.254      7321.2532     11755.00
    2672.003      6041.2745      9652.00
