#XDI/1.1  GSE/1.0
# Column.1: energy eV
# Column.2: ifluor
# Column.3: i0
# Scan.end_time: 2014-03-09 12:24:37
# Scan.start_time: 2014-03-09 12:12:20
# Element.symbol:  S
# Element.edge:  K
# Mono.d_spacing:  3.13477
# Mono.name: Si 111
# Sample.formula: FeS2
# Sample.name: pyrite
# Sample.prep: powder on halogen-free tape
# Sample.temperature: room temperature
# Facility.Name:  APS
# Beamline.Name:  13-ID-E
# Beamline.xray_source:  3.6cm undulator
# Beamline.I0: He, 200 cm
# Beamline.If: 4-element SDD (Vortex ME-4)
# ScanParameters.ScanType: xafs
# ScanParameters.E0: 2472.000
# ScanParameters.Start: Scan.Member: Value
# ScanParameters.E0: 2472.00
# ScanParameters.Legend: Start       Stop       Step       Npts       Time   Kspace?
# ScanParameters.Region1: -22.000    -8.0000     2.0000     8.0000     2.0000   0
# ScanParameters.Region2: -8.0000     16.000    0.15000     161.00     2.0000   0
# ScanParameters.Region3: 2.0493     7.2453   0.049962     105.00     2.0000   1
#-------------------------
#  energy  ifluor  i0
    2450.000      3706.2050    108751.00 
    2452.001      4093.7516    114201.00 
    2453.999      4227.4669    113736.00 
    2456.000      4317.4288    114432.00 
    2458.000      4877.3495    115649.00 
    2460.000      5135.9097    115660.00 
    2462.000      5834.7351    116029.00 
    2464.000      7216.0562    116614.00 
    2464.150      7085.6396    115545.00 
    2464.300      7324.3954    115810.00 
    2464.450      7429.0574    115634.00 
    2464.600      7679.5984    116049.00 
    2464.750      7759.8224    115715.00 
    2464.900      7911.3731    115883.00 
    2465.050      8077.4239    115110.00 
    2465.200      8286.4346    115357.00 
    2465.351      8368.5513    114878.00 
    2465.500      8626.2095    115064.00 
    2465.650      8953.0166    114625.00 
    2465.800      9263.8226    114654.00 
    2465.950      9391.9465    114145.00 
    2466.101      9652.1690    114448.00 
    2466.250      9801.9792    113718.00 
    2466.400     10047.0566    113886.00 
    2466.551     10603.1295    113624.00 
    2466.700     10945.7654    114056.00 
    2466.850     11343.5797    113763.00 
    2467.000     11767.2253    113863.00 
    2467.149     12295.1180    113437.00 
    2467.300     12899.2956    113590.00 
    2467.450     13374.7215    113156.00 
    2467.600     14230.8853    113590.00 
    2467.751     14906.4778    113267.00 
    2467.900     15746.1428    113277.00 
    2468.050     16522.2587    113888.00 
    2468.200     17668.8542    114145.00 
    2468.351     18820.3704    113960.00 
    2468.500     20444.8911    114524.00 
    2468.650     22129.1154    114284.00 
    2468.800     24016.4555    115033.00 
    2468.950     26171.5643    114335.00 
    2469.100     28301.2509    114399.00 
    2469.250     31200.7840    114286.00 
    2469.400     35367.9304    114684.00 
    2469.550     39141.1476    114575.00 
    2469.701     44554.5494    115149.00 
    2469.849     50855.5332    114899.00 
    2470.001     59646.8752    115433.00 
    2470.150     69097.3899    114865.00 
    2470.301     83691.3150    115651.00 
    2470.450    101875.4838    115375.00 
    2470.600    124398.1628    115610.00 
    2470.750    148893.9159    115533.00 
    2470.900    171429.3554    115736.00 
    2471.050    190331.9783    115672.00 
    2471.199    203105.8014    116045.00 
    2471.351    209035.5245    115424.00 
    2471.500    212662.6647    115726.00 
    2471.650    211681.8795    115758.00 
    2471.801    210329.4114    115228.00 
    2471.950    205092.5382    115274.00 
    2472.100    202877.0432    115314.00 
    2472.250    197834.5590    115787.00 
    2472.400    193841.0385    115376.00 
    2472.550    189758.6037    115916.00 
    2472.700    185213.6386    116521.00 
    2472.850    176874.7284    116425.00 
    2473.000    170219.2177    116724.00 
    2473.150    163719.2822    117337.00 
    2473.300    155989.0766    117610.00 
    2473.450    148090.0453    117389.00 
    2473.601    140161.1097    118141.00 
    2473.749    132664.5751    118479.00 
    2473.900    124335.8119    118747.00 
    2474.050    116549.2277    119095.00 
    2474.200    108643.6949    119273.00 
    2474.351    101990.4949    119905.00 
    2474.500     96396.6018    119814.00 
    2474.650     92441.1108    119953.00 
    2474.800     88495.6923    119801.00 
    2474.950     85611.9109    120352.00 
    2475.100     83467.2454    120587.00 
    2475.250     82561.7670    121168.00 
    2475.400     81179.7778    120838.00 
    2475.551     80853.7602    121535.00 
    2475.700     80598.8370    121237.00 
    2475.851     81869.4942    121790.00 
    2476.001     82871.8666    121459.00 
    2476.150     87731.3300    121044.00 
    2476.300     92870.1352    122070.00 
    2476.450    101580.1064    122418.00 
    2476.600    109766.5464    122377.00 
    2476.750    119789.2537    122239.00 
    2476.901    127515.5531    122344.00 
    2477.050    133647.8271    122561.00 
    2477.200    129843.3594    108024.00 
    2477.350    138772.4923    122694.00 
    2477.500    140905.3522    122630.00 
    2477.650    142996.3128    124180.00 
    2477.801    144173.2753    123790.00 
    2477.950    144701.8523    123861.00 
    2478.101    146807.3843    123827.00 
    2478.250    149695.8944    123870.00 
    2478.400    150952.6401    122916.00 
    2478.550    153425.5441    123298.00 
    2478.700    154120.6770    124664.00 
    2478.850    156597.8562    125108.00 
    2479.000    157253.9084    124259.00 
    2479.150    158067.1324    124793.00 
    2479.300    158331.2513    124583.00 
    2479.450    158508.2215    125117.00 
    2479.601    158796.7394    124858.00 
    2479.750    159440.1570    125356.00 
    2479.900    157791.7983    125092.00 
    2480.050    157732.4900    125017.00 
    2480.200    155525.5289    125025.00 
    2480.351    155384.6380    125214.00 
    2480.500    153357.6601    124942.00 
    2480.650    152576.9189    125207.00 
    2480.800    151944.2971    125019.00 
    2480.950    150758.9536    125136.00 
    2481.100    150592.1673    125109.00 
    2481.250    151019.8292    125152.00 
    2481.400    150247.6220    124977.00 
    2481.550    149743.5398    125124.00 
    2481.700    149294.5765    125076.00 
    2481.850    148285.4309    125051.00 
    2482.000    148127.5697    124629.00 
    2482.149    148221.9155    125611.00 
    2482.300    147476.2289    125216.00 
    2482.450    147099.9529    125696.00 
    2482.601    147752.9312    125294.00 
    2482.749    148387.5991    125585.00 
    2482.900    148755.1020    125057.00 
    2483.050    149663.2512    126024.00 
    2483.200    151023.7094    126032.00 
    2483.350    150980.6269    125556.00 
    2483.500    152415.8045    125975.00 
    2483.650    152668.2493    126121.00 
    2483.801    153490.8578    126477.00 
    2483.950    152525.6910    125754.00 
    2484.101    152927.7245    125432.00 
    2484.250    152134.5285    125184.00 
    2484.400    152698.1490    125200.00 
    2484.550    151657.7676    125456.00 
    2484.700    152735.9042    126644.00 
    2484.850    153099.1217    126187.00 
    2485.000    152625.9068    125632.00 
    2485.151    152828.1288    125219.00 
    2485.300    154548.6236    126706.00 
    2485.450    154898.1193    126190.00 
    2485.601    156327.2487    127284.00 
    2485.750    155302.0477    126518.00 
    2485.900    156174.2619    126852.00 
    2486.050    156608.1348    127278.00 
    2486.200    155978.0577    126717.00 
    2486.350    156767.8030    127675.00 
    2486.500    154984.6685    126420.00 
    2486.650    155399.3925    127057.00 
    2486.800    156073.0284    128206.00 
    2486.950    154459.9654    127242.00 
    2487.101    154876.0739    127543.00 
    2487.250    154946.7034    127210.00 
    2487.400    154595.6599    127921.00 
    2487.551    155329.5419    127952.00 
    2487.700    154649.4322    127939.00 
    2487.851    153362.5942    127804.00 
    2488.000    153699.2968    128139.00 
    2488.790    154151.7606    128486.00 
    2489.598    155999.5388    129621.00 
    2490.427    157573.6791    130249.00 
    2491.274    157695.8951    130746.00 
    2492.138    158290.1056    131470.00 
    2493.023    158590.0714    132941.00 
    2493.927    158184.2810    133405.00 
    2494.851    153669.1454    132182.00 
    2495.792    151687.5876    131001.00 
    2496.753    149014.7957    130432.00 
    2497.733    148977.9704    131234.00 
    2498.731    146910.4785    132060.00 
    2499.750    146872.1854    132813.00 
    2500.786    147032.9393    133672.00 
    2501.843    147113.6895    134441.00 
    2502.917    149359.3192    135115.00 
    2504.011    151230.4685    135982.00 
    2505.125    154345.2774    136844.00 
    2506.256    157221.0625    137616.00 
    2507.408    158200.2035    138659.00 
    2508.578    160293.1349    139300.00 
    2509.767    162792.4250    140889.00 
    2510.975    164252.2922    141027.00 
    2512.203    167147.3765    141798.00 
    2513.448    172034.6583    143081.00 
    2514.714    176524.0834    143987.00 
    2515.998    180769.1743    145649.00 
    2517.301    184133.0507    146148.00 
    2518.624    185749.2704    147046.00 
    2519.964    184810.3535    146978.00 
    2521.326    185135.8346    148151.00 
    2522.705    183164.9914    147930.00 
    2524.103    183225.4922    148496.00 
    2525.521    182540.0645    148954.00 
    2526.957    181574.1615    149574.00 
    2528.412    180193.8171    150474.00 
    2529.886    179852.3291    151234.00 
    2531.380    180437.2656    152531.00 
    2532.893    179796.4543    153228.00 
    2534.424    180263.5651    154321.00 
    2535.974    180388.6564    154739.00 
    2537.543    181199.9571    155199.00 
    2539.132    183096.8827    155087.00 
    2540.740    183485.0143    154154.00 
    2542.367    184646.7806    152393.00 
    2544.012    186401.0291    153865.00 
    2545.677    189124.6661    154157.00 
    2547.361    189195.9030    153698.00 
    2549.063    189463.0919    153778.00 
    2550.784    190368.3803    152940.00 
    2552.526    191206.5323    152104.00 
    2554.285    194126.0647    152362.00 
    2556.064    197041.4810    152460.00 
    2557.863    199204.4271    151759.00 
    2559.679    200015.2092    151714.00 
    2561.515    199345.2306    152074.00 
    2563.370    200215.1284    151777.00 
    2565.243    198835.6396    150381.00 
    2567.136    197334.4683    148132.00 
    2569.048    190727.9588    143915.00 
    2570.979    193598.2355    144406.00 
    2572.929    193649.6329    145341.00 
    2574.898    192476.6128    143841.00 
    2576.886    190144.1649    142128.00 
    2578.892    189846.8855    142059.00 
    2580.919    188827.5155    140656.00 
    2582.964    190131.1227    140542.00 
    2585.028    190110.2506    139404.00 
    2587.112    190676.5110    138267.00 
    2589.213    192418.1430    136817.00 
    2591.334    191038.3212    134951.00 
    2593.474    190440.2233    132099.00 
    2595.633    183313.1039    127751.00 
    2597.812    169067.0876    117103.00 
    2600.009    175918.8448    119363.00 
    2602.225    178423.2585    118179.00 
    2604.461    178330.1919    115774.00 
    2606.715    177578.4097    113683.00 
    2608.990    179098.0410    112693.00 
    2611.281    184519.8751    114341.00 
    2613.592    181936.6065    111328.00 
    2615.922    181085.3672    108855.00 
    2618.272    177708.9238    106422.00 
    2620.640    178076.3297    106183.00 
    2623.027    174988.9373    103433.00 
    2625.433    171315.5729    101485.00 
    2627.860    165570.1823     95403.00 
    2630.304    145241.4086     83145.00 
    2632.767    145374.9042     82793.00 
    2635.250    144665.5526     81403.00 
    2637.752    138693.2220     77203.00 
    2640.273    133946.1656     74302.00 
    2642.812    128315.5949     71043.00 
    2645.371    122898.8503     67205.00 
    2647.948    115532.2920     63425.00 
    2650.544    105974.4224     57574.00 
    2653.160     97365.5401     52862.00 
    2655.795     82549.7454     44576.00 
    2658.448     69676.6492     37309.00 
    2661.122     57288.6029     30650.00 
    2663.813     40576.1046     21548.00 
    2666.525     41148.6983     21822.00 
    2669.254     41184.7843     21758.00 
    2672.003     37943.3301     19960.00 
