#XDI/1.1  GSE/1.0
# Column.1: energy eV
# Column.2: ifluor
# Column.3: i0
# Scan.end_time: 2014-08-20 12:44:39
# Scan.start_time: 2014-08-20 12:31:28
# Element.symbol:  S
# Element.edge:  K
# Mono.d_spacing:  3.13477
# Mono.name: Si 111
# Sample.formula: FeS2
# Sample.name: pyrite
# Sample.prep: powder on halogen-free tape
# Sample.temperature: room temperature
# Facility.Name:  APS
# Beamline.Name:  13-ID-E
# Beamline.xray_source:  3.6cm undulator
# Beamline.I0: He,  20 cm
# Beamline.If: 4-element SDD (Vortex ME-4)
# ScanParameters.ScanType: xafs
# ScanParameters.E0: 2472.000
# ScanParameters.Start: Scan.Member: Value
# ScanParameters.E0: 2472.00
# ScanParameters.Legend: Start       Stop       Step       Npts       Time   Kspace?
# ScanParameters.Region1: -30.000    -10.000     5.0000     5.0000     2.0000   0
# ScanParameters.Region2: -10.000     15.000    0.10000     251.00     2.0000   0
# ScanParameters.Region3: 15.000     105.00     2.0000     46.000     2.0000   0
#-------------------------
#  energy  ifluor  i0
    2442.000     33301.9626    222937.00 
    2447.000     39653.1903    251158.00 
    2452.000     38490.2787    254126.00 
    2457.000     38391.7785    255779.00 
    2462.000     43608.5544    260471.00 
    2462.100     43662.8776    262295.00 
    2462.200     45177.6846    261616.00 
    2462.301     44473.3253    261941.00 
    2462.401     44652.1720    261676.00 
    2462.500     45679.6179    262437.00 
    2462.601     45734.6694    262662.00 
    2462.699     45702.8009    262938.00 
    2462.801     45359.2580    261772.00 
    2462.900     46552.7295    261940.00 
    2463.000     47153.0340    263269.00 
    2463.100     47040.9073    261686.00 
    2463.200     47439.0992    263104.00 
    2463.301     47589.2390    262693.00 
    2463.400     47397.3720    261337.00 
    2463.500     47844.2244    262072.00 
    2463.600     48100.4955    262561.00 
    2463.700     48926.8538    262866.00 
    2463.800     49035.5043    262896.00 
    2463.900     49488.3392    262886.00 
    2464.000     49646.6231    262564.00 
    2464.101     49563.7088    262547.00 
    2464.200     49971.6711    262929.00 
    2464.301     50514.4109    262725.00 
    2464.400     50985.7483    263115.00 
    2464.500     51498.0719    263222.00 
    2464.600     51585.1329    263977.00 
    2464.701     52372.5919    262961.00 
    2464.800     52475.2469    263402.00 
    2464.900     53578.9390    262659.00 
    2465.000     53257.8417    262573.00 
    2465.101     53978.6854    263191.00 
    2465.200     54375.5146    263213.00 
    2465.300     55222.8867    263784.00 
    2465.400     55237.7350    262830.00 
    2465.500     56597.1110    263888.00 
    2465.599     56956.9232    263129.00 
    2465.700     57269.9489    263079.00 
    2465.800     58657.9160    263088.00 
    2465.900     58589.6437    262250.00 
    2466.000     59635.5753    262338.00 
    2466.100     60231.5277    262270.00 
    2466.200     61585.8542    262963.00 
    2466.301     62573.2319    263009.00 
    2466.400     63380.2753    262533.00 
    2466.501     64824.7172    263776.00 
    2466.600     66138.1531    263604.00 
    2466.700     66479.3694    264456.00 
    2466.801     68017.2621    263901.00 
    2466.900     70360.6522    265676.00 
    2466.999     70859.0394    264736.00 
    2467.101     73297.6899    266579.00 
    2467.200     74640.3007    264503.00 
    2467.300     75834.8333    265187.00 
    2467.400     78636.6174    266170.00 
    2467.500     80896.0184    265405.00 
    2467.600     82755.9872    265105.00 
    2467.700     85333.9095    266466.00 
    2467.800     88001.4590    266492.00 
    2467.900     90201.5776    266398.00 
    2468.000     92585.0282    265680.00 
    2468.100     95703.7123    264411.00 
    2468.200     99124.1600    265041.00 
    2468.301    103069.6207    265634.00 
    2468.400    107144.8943    265961.00 
    2468.501    112097.1420    266822.00 
    2468.600    118136.0326    267248.00 
    2468.700    122141.7076    266266.00 
    2468.799    128870.6698    265544.00 
    2468.900    134735.0880    265469.00 
    2469.000    142947.2520    266194.00 
    2469.100    151414.3701    265285.00 
    2469.200    160350.7549    265532.00 
    2469.300    172228.3486    265035.00 
    2469.400    183949.7623    266116.00 
    2469.500    198889.7946    265685.00 
    2469.601    215193.3037    265176.00 
    2469.700    235066.5260    266721.00 
    2469.800    258254.5647    265716.00 
    2469.900    284482.0991    265408.00 
    2470.000    316769.5958    264760.00 
    2470.100    355490.3499    264909.00 
    2470.200    403627.1293    266184.00 
    2470.301    454510.3108    266805.00 
    2470.401    510745.2892    265877.00 
    2470.501    570236.4208    265486.00 
    2470.600    627324.3932    265752.00 
    2470.700    678262.1639    266122.00 
    2470.801    720491.8999    266977.00 
    2470.900    754654.3166    266719.00 
    2471.000    776522.5523    266678.00 
    2471.100    794057.5097    265702.00 
    2471.200    801871.1770    264856.00 
    2471.300    810077.9459    265990.00 
    2471.399    805607.0252    264725.00 
    2471.500    802827.5509    264617.00 
    2471.600    799657.6522    265414.00 
    2471.700    789027.9772    265580.00 
    2471.801    780913.8026    264585.00 
    2471.900    771435.5528    265074.00 
    2472.000    764763.0176    265790.00 
    2472.101    753892.1403    264999.00 
    2472.200    743239.4471    264732.00 
    2472.300    732075.1299    265491.00 
    2472.400    717364.9549    265390.00 
    2472.500    707570.4842    265638.00 
    2472.600    685888.4593    265571.00 
    2472.700    669905.7054    265948.00 
    2472.801    651645.0616    266189.00 
    2472.900    635370.1396    266738.00 
    2473.000    615928.2777    265770.00 
    2473.100    598556.3788    265496.00 
    2473.200    578255.5626    265625.00 
    2473.301    561262.8325    265558.00 
    2473.399    539808.0225    265565.00 
    2473.501    521950.7774    266315.00 
    2473.601    504140.0214    266952.00 
    2473.700    481727.0094    266663.00 
    2473.800    462551.6693    266731.00 
    2473.900    439414.7344    264798.00 
    2474.001    426480.7855    266490.00 
    2474.100    407404.2337    266106.00 
    2474.200    394320.3903    266075.00 
    2474.300    383162.8746    266702.00 
    2474.400    371318.9099    266130.00 
    2474.500    364198.9946    266988.00 
    2474.601    356487.1611    267638.00 
    2474.700    349630.3065    267380.00 
    2474.801    342929.5414    266735.00 
    2474.900    337847.4992    266752.00 
    2475.000    334719.8312    268032.00 
    2475.101    331311.9326    268385.00 
    2475.200    326907.7089    268000.00 
    2475.301    325248.9872    268273.00 
    2475.400    326483.2830    267601.00 
    2475.500    325589.1362    267019.00 
    2475.600    329214.3258    267508.00 
    2475.701    331669.1869    266091.00 
    2475.801    337214.9311    265435.00 
    2475.900    347606.3468    262518.00 
    2476.000    360870.1023    269591.00 
    2476.100    377249.2306    269902.00 
    2476.200    395579.2881    269031.00 
    2476.300    418622.1804    269689.00 
    2476.400    441009.8268    269444.00 
    2476.501    464146.5921    269114.00 
    2476.600    484312.4181    269595.00 
    2476.700    499250.8090    269831.00 
    2476.800    512446.2193    268533.00 
    2476.900    512623.9550    245659.00 
    2477.000    525713.2681    268202.00 
    2477.100    534913.2199    270335.00 
    2477.200    537036.9331    270347.00 
    2477.300    541438.0413    269608.00 
    2477.400    532349.8560    244973.00 
    2477.501    543743.9970    269931.00 
    2477.600    549526.8922    270108.00 
    2477.700    551761.9245    269512.00 
    2477.800    555536.2543    268903.00 
    2477.900    556678.0645    268126.00 
    2478.000    563626.2313    269659.00 
    2478.100    567966.6464    269720.00 
    2478.200    571234.9664    268639.00 
    2478.300    574027.0351    267577.00 
    2478.400    588220.8697    273560.00 
    2478.500    585405.7957    273172.00 
    2478.601    590312.8377    272608.00 
    2478.700    591132.5329    270769.00 
    2478.800    598704.2123    272015.00 
    2478.900    597766.8499    272184.00 
    2479.000    600011.2495    272360.00 
    2479.100    601720.5870    272470.00 
    2479.200    602726.6222    272211.00 
    2479.300    602357.3376    272987.00 
    2479.400    600665.8910    273186.00 
    2479.500    600559.6085    273127.00 
    2479.601    598806.3671    273228.00 
    2479.701    597620.9794    273972.00 
    2479.800    597433.4565    274634.00 
    2479.900    592501.0381    275373.00 
    2480.000    588287.7557    274117.00 
    2480.100    582062.4841    273681.00 
    2480.200    579737.6238    274422.00 
    2480.300    576643.5035    274637.00 
    2480.400    575554.7528    275136.00 
    2480.500    570881.7385    275361.00 
    2480.601    566391.2725    275936.00 
    2480.700    564240.1293    275797.00 
    2480.800    562723.1375    276143.00 
    2480.900    559919.6593    275274.00 
    2481.000    557574.3271    275478.00 
    2481.100    556645.6339    276546.00 
    2481.200    551572.7782    275740.00 
    2481.300    551643.1069    276423.00 
    2481.400    555116.6077    276869.00 
    2481.500    558433.3862    277110.00 
    2481.601    561446.8379    277585.00 
    2481.701    564328.7394    277384.00 
    2481.801    568241.5910    277717.00 
    2481.900    570328.4134    276317.00 
    2482.000    575516.1349    276765.00 
    2482.101    578173.8253    276275.00 
    2482.200    582026.4029    276071.00 
    2482.300    587955.1804    277249.00 
    2482.400    589847.5976    276515.00 
    2482.500    591791.4578    277537.00 
    2482.601    592495.5557    276328.00 
    2482.700    591298.2493    276548.00 
    2482.801    596357.8670    278336.00 
    2482.900    597593.2134    278762.00 
    2483.000    595112.9877    278341.00 
    2483.100    596887.4222    278876.00 
    2483.200    597186.3815    278305.00 
    2483.301    597779.4608    278898.00 
    2483.400    597137.5968    278604.00 
    2483.500    597652.1016    279440.00 
    2483.600    596051.5802    278306.00 
    2483.700    593668.7483    278298.00 
    2483.800    596858.9573    279150.00 
    2483.900    596886.4761    278696.00 
    2484.000    596360.3775    279334.00 
    2484.100    595621.5412    279455.00 
    2484.200    598019.6909    280612.00 
    2484.301    595608.3405    279989.00 
    2484.400    596077.8736    280285.00 
    2484.501    597811.2456    280813.00 
    2484.600    600347.3861    281386.00 
    2484.700    602247.5948    281067.00 
    2484.800    599372.8362    281215.00 
    2484.900    601980.5663    280952.00 
    2485.000    604557.0488    281131.00 
    2485.101    605847.8258    281466.00 
    2485.200    606211.7515    281739.00 
    2485.300    609599.4179    282552.00 
    2485.400    612585.5446    284082.00 
    2485.501    613111.9061    283324.00 
    2485.602    613087.3786    282799.00 
    2485.699    610906.6895    282547.00 
    2485.800    613546.6407    283731.00 
    2485.900    614629.5116    284891.00 
    2486.000    612408.1992    283972.00 
    2486.100    615897.2950    284475.00 
    2486.200    613938.7746    284363.00 
    2486.300    614949.8513    285105.00 
    2486.400    614220.3132    285070.00 
    2486.500    614366.6527    285019.00 
    2486.601    612628.7244    285006.00 
    2486.700    614071.8261    285150.00 
    2486.800    611489.9000    284446.00 
    2486.900    611077.3879    284535.00 
    2487.000    609483.9289    284280.00 
    2489.000    603415.2315    282491.00 
    2490.999    615216.5014    286649.00 
    2493.000    610731.1154    289352.00 
    2495.000    599006.9261    291226.00 
    2497.001    592258.8917    293510.00 
    2499.001    584232.4295    293986.00 
    2501.000    579937.9454    294498.00 
    2503.000    586243.9777    297498.00 
    2504.999    603617.7646    298988.00 
    2506.999    613962.7106    300353.00 
    2509.001    621922.1684    301282.00 
    2511.000    638960.4648    305818.00 
    2513.001    658352.2394    308376.00 
    2515.000    673313.5985    306702.00 
    2517.000    683745.9795    304241.00 
    2519.000    683301.0244    304858.00 
    2521.000    682182.9584    307886.00 
    2523.000    680278.5512    312147.00 
    2525.000    682122.2833    313726.00 
    2527.001    680448.0028    315057.00 
    2529.001    672566.2247    315781.00 
    2531.000    673002.5334    318690.00 
    2533.001    679506.9504    323478.00 
    2535.000    687986.3823    328398.00 
    2537.000    690594.6572    330388.00 
    2539.000    703386.5791    333045.00 
    2541.000    705220.5479    329896.00 
    2543.001    707151.7063    329480.00 
    2545.000    714299.5442    331348.00 
    2547.000    722369.8752    333855.00 
    2549.000    730551.3402    336959.00 
    2551.000    738645.3285    337846.00 
    2553.000    752636.0378    342019.00 
    2555.001    767220.6137    344496.00 
    2557.000    780546.0385    347889.00 
    2559.000    793075.2123    351021.00 
    2561.000    801069.9989    353379.00 
    2563.000    807794.9133    356598.00 
    2565.000    813236.0489    357511.00 
    2567.000    816871.8478    359439.00 
    2569.000    825262.8811    363343.00 
    2571.000    819550.4691    363665.00 
    2573.000    818237.6471    363159.00 
    2575.000    798521.4120    353949.00 
    2577.000    761742.2498    335634.00 
