#XDI/1.1  GSE/1.0
# Column.1: energy eV
# Column.2: ifluor
# Column.3: i0
# Scan.end_time: 2014-04-02 09:58:34
# Scan.start_time: 2014-04-02 09:49:46
# Element.symbol:  S
# Element.edge:  K
# Mono.d_spacing:  3.13477
# Mono.name: Si 111
# Sample.formula: FeS2
# Sample.name: pyrite
# Sample.prep: powder on halogen-free tape
# Sample.temperature: room temperature
# Facility.Name:  APS
# Beamline.Name:  13-ID-E
# Beamline.xray_source:  3.6cm undulator
# Beamline.I0: He,  20 cm
# Beamline.If: 4-element SDD (Vortex ME-4)
# ScanParameters.ScanType: xafs
# ScanParameters.E0: 2472.000
# ScanParameters.Start: Scan.Member: Value
# ScanParameters.E0: 2472.00
# ScanParameters.Legend: Start       Stop       Step       Npts       Time   Kspace?
# ScanParameters.Region1: -22.000    -8.0000     2.0000     8.0000     2.0000   0
# ScanParameters.Region2: -8.0000     16.000    0.15000     161.00     2.0000   0
# ScanParameters.Region3: 2.0493     5.7962    0.10127     38.000     2.0000   1
#-------------------------
#  energy  ifluor  i0
    2450.000     10707.8768    337054.00 
    2452.000     11224.1946    322737.00 
    2453.999     11736.8114    324571.00 
    2456.000     12051.9414    327912.00 
    2458.001     12974.9542    331544.00 
    2460.000     14649.3563    332484.00 
    2462.000     16962.0601    334066.00 
    2464.000     21240.5610    338497.00 
    2464.150     22486.2660    347115.00 
    2464.301     22765.6661    347634.00 
    2464.451     23577.0262    350453.00 
    2464.600     23892.0212    350774.00 
    2464.750     24567.4063    350438.00 
    2464.900     25220.8765    346216.00 
    2465.050     25866.1041    348443.00 
    2465.200     27070.0514    352218.00 
    2465.350     27696.8312    350741.00 
    2465.501     28424.0672    350668.00 
    2465.650     29572.6540    351581.00 
    2465.800     30355.8992    350734.00 
    2465.950     31200.5600    349943.00 
    2466.100     31919.9235    347221.00 
    2466.250     33350.5206    347813.00 
    2466.400     34227.1358    346189.00 
    2466.550     35451.5456    349143.00 
    2466.699     36841.8200    346828.00 
    2466.850     38627.9501    344477.00 
    2467.000     39956.0825    345461.00 
    2467.150     41996.7036    348105.00 
    2467.300     44153.5555    347563.00 
    2467.450     46936.3431    350565.00 
    2467.600     49591.8854    348554.00 
    2467.750     52351.1097    348731.00 
    2467.900     55956.0704    349712.00 
    2468.050     60442.3282    352180.00 
    2468.200     64549.5974    352162.00 
    2468.350     69837.6595    354224.00 
    2468.500     75755.7267    354682.00 
    2468.651     81310.4897    353094.00 
    2468.800     89633.8872    357289.00 
    2468.950     99103.1260    359246.00 
    2469.100    110604.4512    361187.00 
    2469.250    122202.3775    359635.00 
    2469.400    136663.2132    358723.00 
    2469.549    155609.0804    359576.00 
    2469.701    178005.4802    359566.00 
    2469.850    207082.4463    359565.00 
    2470.000    242750.3475    357676.00 
    2470.150    291046.5692    362776.00 
    2470.300    342777.4195    361908.00 
    2470.450    397440.0873    362262.00 
    2470.600    443029.0257    362370.00 
    2470.751    478400.0181    362864.00 
    2470.899    500664.7317    362448.00 
    2471.050    512507.2121    360782.00 
    2471.200    517075.5587    360094.00 
    2471.351    516845.0676    359321.00 
    2471.500    514037.5336    361624.00 
    2471.650    509202.1180    362079.00 
    2471.800    500728.6651    360020.00 
    2471.950    490636.0701    360315.00 
    2472.100    481720.8365    361171.00 
    2472.250    468764.0569    358465.00 
    2472.400    457125.2290    359309.00 
    2472.550    442721.5452    358124.00 
    2472.700    422247.1095    355757.00 
    2472.850    405618.4293    356675.00 
    2473.000    387096.3861    355110.00 
    2473.150    370008.6851    355353.00 
    2473.300    349673.9685    354501.00 
    2473.450    328702.0704    352356.00 
    2473.600    311654.3581    355609.00 
    2473.750    288816.9494    352462.00 
    2473.900    270526.0291    350191.00 
    2474.050    253721.9758    350221.00 
    2474.200    240862.0381    350281.00 
    2474.350    227830.2671    346352.00 
    2474.500    218923.0322    346793.00 
    2474.650    212168.5747    348108.00 
    2474.801    204801.9734    346588.00 
    2474.950    200996.8007    345661.00 
    2475.100    197251.3845    344733.00 
    2475.250    193773.7149    341565.00 
    2475.400    192688.7895    341715.00 
    2475.551    193629.1971    339283.00 
    2475.701    199282.4851    339489.00 
    2475.850    208797.0660    340319.00 
    2476.000    219936.5963    338055.00 
    2476.150    234368.5749    334058.00 
    2476.300    254591.1646    334541.00 
    2476.450    271454.7109    332599.00 
    2476.600    287116.2482    333045.00 
    2476.750    298069.9518    331899.00 
    2476.900    300073.6732    330508.00 
    2477.051    301279.6745    325441.00 
    2477.200    305431.5662    326856.00 
    2477.350    362514.8269    358410.00 
    2477.501    317398.2067    337048.00 
    2477.650    305770.4158    318744.00 
    2477.800    308276.0389    317907.00 
    2477.950    312540.3051    317148.00 
    2478.099    311594.8935    314897.00 
    2478.251    318506.4763    317519.00 
    2478.399    313341.2630    309767.00 
    2478.549    316639.1336    310906.00 
    2478.701    316451.8433    308694.00 
    2478.850    316233.7861    306650.00 
    2479.000    316609.9875    306479.00 
    2479.149    314121.1116    304033.00 
    2479.299    311903.7385    301511.00 
    2479.450    309669.7691    302129.00 
    2479.600    305871.0764    300571.00 
    2479.750    303059.8837    299259.00 
    2479.901    299259.6957    298260.00 
    2480.050    294729.1855    298612.00 
    2480.200    290330.8015    296977.00 
    2480.351    284856.3804    294283.00 
    2480.500    282817.2151    294468.00 
    2480.650    280643.9231    292826.00 
    2480.801    278596.7493    291541.00 
    2480.950    275412.5709    291019.00 
    2481.100    272271.6390    288105.00 
    2481.250    272579.6760    287326.00 
    2481.400    274706.1819    289207.00 
    2481.550    273401.4207    284984.00 
    2481.701    276682.8725    286291.00 
    2481.850    278474.4037    285920.00 
    2482.000    280603.5625    283768.00 
    2482.150    281350.4814    283572.00 
    2482.299    282018.4058    282319.00 
    2482.450    283441.9289    281815.00 
    2482.601    283083.1584    280840.00 
    2482.751    282154.7521    280268.00 
    2482.900    278225.8853    276989.00 
    2483.050    282325.8637    280452.00 
    2483.200    280166.8682    280031.00 
    2483.350    278220.5263    276257.00 
    2483.501    273648.9619    273505.00 
    2483.650    274262.1143    274050.00 
    2483.801    274359.9958    274845.00 
    2483.950    272514.3739    273464.00 
    2484.100    272539.1147    274576.00 
    2484.251    271112.9788    271771.00 
    2484.400    269093.3081    270777.00 
    2484.550    269165.2217    269573.00 
    2484.701    271341.2137    271552.00 
    2484.850    269684.0402    269824.00 
    2485.000    270077.7606    269050.00 
    2485.150    269242.0864    267872.00 
    2485.301    268272.8438    267337.00 
    2485.450    269776.8840    267171.00 
    2485.600    266631.9663    264560.00 
    2485.750    267253.4271    264652.00 
    2485.900    266375.4211    263913.00 
    2486.050    262440.7429    261450.00 
    2486.200    263820.1137    262142.00 
    2486.351    259750.7865    259835.00 
    2486.500    260320.0584    260582.00 
    2486.649    260434.1615    261132.00 
    2486.800    262164.4135    262541.00 
    2486.950    260791.1612    261814.00 
    2487.101    263035.3587    265263.00 
    2487.250    262529.0252    265889.00 
    2487.400    262556.2680    264148.00 
    2487.551    260402.6768    262974.00 
    2487.700    260858.1893    264510.00 
    2487.851    261864.4537    266477.00 
    2488.000    263182.7731    267086.00 
    2489.621    265687.0427    268892.00 
    2491.319    268856.1892    272768.00 
    2493.096    267254.7546    273440.00 
    2494.951    265815.0523    278108.00 
    2496.884    269366.9903    285274.00 
    2498.895    273288.4530    292447.00 
    2500.984    272770.7873    297398.00 
    2503.152    279284.4834    304778.00 
    2505.397    290753.5370    311143.00 
    2507.721    299773.5110    319885.00 
    2510.122    318051.8565    334544.00 
    2512.602    350677.8981    358516.00 
    2515.161    361559.5266    355595.00 
    2517.798    379526.6059    366782.00 
    2520.511    387386.3445    381233.00 
    2523.304    397669.8181    393006.00 
    2526.174    406458.3804    405096.00 
    2529.124    416142.5885    420577.00 
    2532.151    425552.9312    437735.00 
    2535.256    436538.3360    450131.00 
    2538.439    441489.2973    454090.00 
    2541.700    450861.6180    455953.00 
    2545.042    462183.7990    463922.00 
    2548.458    479890.7130    477147.00 
    2551.954    498395.4124    486554.00 
    2555.528    518701.9023    493174.00 
    2559.180    535555.0494    502619.00 
    2562.910    529139.0668    497608.00 
    2566.719    538985.8021    503406.00 
    2570.606    513543.4365    506504.00 
    2574.570    548217.4008    508699.00 
    2578.614    551740.7027    513360.00 
    2582.735    558982.0405    521295.00 
    2586.934    560030.7181    520159.00 
    2591.211    549297.8027    504416.00 
    2595.567    586908.9734    535534.00 
    2600.000    650055.2773    590277.00 
