#XDI/1.1  GSE/1.0
# Column.1: energy eV
# Column.2: ifluor
# Column.3: i0
# Scan.end_time: 2014-03-09 11:29:06
# Scan.start_time: 2014-03-09 11:16:46
# Element.symbol:  S
# Element.edge:  K
# Mono.d_spacing:  3.13477
# Mono.name: Si 111
# Sample.formula: Fe(1-x)S
# Sample.name: pyrrhotite
# Sample.prep: powder on halogen-free tape
# Sample.temperature: room temperature
# Facility.Name:  APS
# Beamline.Name:  13-ID-E
# Beamline.xray_source:  3.6cm undulator
# Beamline.I0: He,  20 cm
# Beamline.If: 4-element SDD (Vortex ME-4)
# ScanParameters.ScanType: xafs
# ScanParameters.E0: 2472.000
# ScanParameters.Start: Scan.Member: Value
# ScanParameters.E0: 2472.00
# ScanParameters.Legend: Start       Stop       Step       Npts       Time   Kspace?
# ScanParameters.Region1: -22.000    -8.0000     2.0000     8.0000     2.0000   0
# ScanParameters.Region2: -8.0000     16.000    0.15000     161.00     2.0000   0
# ScanParameters.Region3: 2.0493     7.2453   0.049962     105.00     2.0000   1
#-------------------------
#  energy  ifluor  i0
    2450.000      4197.4131     99732.00
    2452.000      4854.5984    107954.00
    2454.000      4809.7834    110385.00
    2456.000      4879.1959    112580.00
    2458.000      5380.6186    114711.00
    2460.000      5754.8886    116493.00
    2462.000      6143.2528    117782.00
    2464.001      7247.5222    119352.00
    2464.150      7312.5195    119212.00
    2464.300      7424.2855    119175.00
    2464.450      7461.5050    118687.00
    2464.600      7546.4659    119060.00
    2464.750      7719.9522    118405.00
    2464.900      7833.1578    118510.00
    2465.051      8057.0503    117592.00
    2465.200      8199.7279    117546.00
    2465.350      8450.9968    117350.00
    2465.500      8617.8742    116967.00
    2465.650      8538.1738    116265.00
    2465.801      8862.3572    115821.00
    2465.950      9516.1202    115384.00
    2466.100      9679.9823    115178.00
    2466.250     10050.6238    114998.00
    2466.400     10023.3472    114955.00
    2466.550     10521.9922    114694.00
    2466.701     11005.6341    114227.00
    2466.851     11488.0883    113904.00
    2467.001     12316.2214    113987.00
    2467.150     12823.8633    113318.00
    2467.300     13792.5749    113081.00
    2467.450     14655.3337    113032.00
    2467.600     16011.9674    112722.00
    2467.750     17275.6656    112200.00
    2467.900     19116.9154    112391.00
    2468.050     21534.9875    111877.00
    2468.200     24821.7927    111931.00
    2468.351     29043.4137    111422.00
    2468.500     35352.2113    111521.00
    2468.650     44562.0694    111062.00
    2468.801     57642.9183    111321.00
    2468.950     74700.8769    110982.00
    2469.101     94077.8397    111255.00
    2469.250    111726.4070    111144.00
    2469.400    123590.7920    110933.00
    2469.550    129157.2302    110868.00
    2469.700    130956.7808    110858.00
    2469.850    129840.2939    111424.00
    2470.000    127937.9637    111318.00
    2470.150    128003.6364    111655.00
    2470.300    127735.8442    111567.00
    2470.450    126501.1839    111382.00
    2470.600    124120.6655    111253.00
    2470.750    120092.7363    111558.00
    2470.900    114203.2809    111488.00
    2471.050    107770.5948    111654.00
    2471.200    100724.6094    111632.00
    2471.351     94525.1888    111632.00
    2471.500     88389.2385    111690.00
    2471.649     82052.7663    110510.00
    2471.801     77613.3758    110829.00
    2471.950     74628.7961    110828.00
    2472.100     73155.0182    111037.00
    2472.250     71430.4153    111456.00
    2472.400     70256.2695    111240.00
    2472.550     70426.9990    111324.00
    2472.701     72031.7801    111179.00
    2472.850     73517.2079    111633.00
    2473.000     76905.9602    111454.00
    2473.150     81431.5407    111737.00
    2473.300     86387.5709    112386.00
    2473.450     91276.8426    112485.00
    2473.600     96002.7656    112294.00
    2473.750    100620.5423    112474.00
    2473.900    104549.7194    112480.00
    2474.050    109444.6698    112289.00
    2474.200    112294.7744    112439.00
    2474.350    115983.3880    113241.00
    2474.500    119085.1937    113137.00
    2474.651    121705.3081    113107.00
    2474.800    124563.3261    113265.00
    2474.950    126559.3064    113940.00
    2475.100    128803.2576    113410.00
    2475.250    130579.2143    113932.00
    2475.400    131993.3481    114249.00
    2475.550    133314.3996    114851.00
    2475.699    133946.7088    114668.00
    2475.851    136205.1377    115391.00
    2476.000    136907.1593    114776.00
    2476.151    138738.3329    113905.00
    2476.301    139592.6432    115935.00
    2476.450    141840.9693    116431.00
    2476.600    142501.6177    116422.00
    2476.750    143765.3354    116966.00
    2476.900    144936.1288    117525.00
    2477.050    146156.3540    118072.00
    2477.200    139144.6684    102556.00
    2477.350    146715.9110    118303.00
    2477.500    147171.8993    118619.00
    2477.650    148276.2031    119958.00
    2477.801    148215.8228    119542.00
    2477.950    149372.4879    120077.00
    2478.101    149138.7866    120272.00
    2478.250    149278.8813    120805.00
    2478.400    150409.7441    120720.00
    2478.550    150678.6615    119738.00
    2478.700    150739.7485    121972.00
    2478.850    150227.5234    121987.00
    2479.000    149760.8705    122256.00
    2479.151    150484.4340    122664.00
    2479.300    149218.2628    122721.00
    2479.450    148663.6110    123015.00
    2479.601    147528.2857    123192.00
    2479.750    146789.4588    123543.00
    2479.900    145321.3394    123428.00
    2480.050    143977.8490    123938.00
    2480.201    141763.5381    124333.00
    2480.351    140385.7144    124285.00
    2480.500    139608.0124    124488.00
    2480.650    137592.2352    124787.00
    2480.800    135830.5952    124797.00
    2480.950    133607.3594    125046.00
    2481.100    131915.4723    125299.00
    2481.250    130379.9449    125477.00
    2481.400    129582.7455    125972.00
    2481.551    127009.7829    126008.00
    2481.700    127092.7960    125988.00
    2481.851    125825.1720    126289.00
    2482.001    125580.0501    126836.00
    2482.150    124255.5262    126528.00
    2482.300    124660.3196    126963.00
    2482.450    124741.0062    126927.00
    2482.600    124320.2040    127333.00
    2482.750    125509.5430    127481.00
    2482.900    126111.1580    127769.00
    2483.050    126378.9500    127286.00
    2483.201    126703.7672    127926.00
    2483.350    127042.5879    128152.00
    2483.501    127306.0249    128731.00
    2483.650    127516.2682    127804.00
    2483.800    128543.1290    128621.00
    2483.950    129470.0763    128608.00
    2484.100    128745.5728    129494.00
    2484.251    128769.8240    128728.00
    2484.399    127782.8475    128762.00
    2484.551    129071.1822    128478.00
    2484.701    128415.6329    128761.00
    2484.851    128765.4355    129420.00
    2485.000    129431.4346    130144.00
    2485.150    128154.2228    130014.00
    2485.300    129516.1525    130550.00
    2485.450    128734.1313    129446.00
    2485.601    128499.4916    130120.00
    2485.750    127978.1856    129973.00
    2485.900    129288.8754    130465.00
    2486.050    128597.8690    130217.00
    2486.200    129439.2075    130609.00
    2486.350    128940.3833    130796.00
    2486.500    128348.3405    131212.00
    2486.650    128740.9843    130587.00
    2486.800    128630.3462    130259.00
    2486.950    127363.7169    130376.00
    2487.100    127472.7997    130750.00
    2487.250    128068.1719    131672.00
    2487.400    127998.2829    131707.00
    2487.551    128038.8090    132256.00
    2487.700    128419.4121    132690.00
    2487.850    128005.7331    132944.00
    2488.000    128057.8188    131977.00
    2488.790    126938.5136    132759.00
    2489.598    127393.2741    133130.00
    2490.427    126802.1713    133343.00
    2491.273    125768.9499    133807.00
    2492.140    125379.1930    134426.00
    2493.023    124164.2454    134264.00
    2493.927    125702.2660    134872.00
    2494.850    126236.2946    134988.00
    2495.792    127155.2193    135187.00
    2496.753    128761.3145    135133.00
    2497.732    130909.6087    135209.00
    2498.731    132253.2882    135349.00
    2499.750    133855.0277    135624.00
    2500.787    135727.3457    136150.00
    2501.843    138172.0204    136435.00
    2502.917    141572.8684    137375.00
    2504.011    144318.2561    138232.00
    2505.125    147720.0323    139565.00
    2506.256    148086.5515    139712.00
    2507.407    149869.6651    140805.00
    2508.578    150248.9279    141290.00
    2509.767    150022.7457    141702.00
    2510.976    149962.0435    142384.00
    2512.202    148856.6847    143064.00
    2513.449    147401.9845    144015.00
    2514.714    145595.6273    143798.00
    2515.998    142729.1460    143940.00
    2517.301    140144.0475    143355.00
    2518.624    137739.2286    142390.00
    2519.965    137762.5388    142507.00
    2521.325    138372.8830    143103.00
    2522.704    139397.0592    143307.00
    2524.103    141223.3836    142874.00
    2525.520    143073.4281    143915.00
    2526.956    144862.6009    144176.00
    2528.412    147243.2345    145341.00
    2529.886    148908.3796    144477.00
    2531.380    150538.0982    145190.00
    2532.891    152027.2857    145649.00
    2534.424    149835.2804    146352.00
    2535.974    156431.1522    146720.00
    2537.544    156214.7992    146680.00
    2539.133    156307.4290    146584.00
    2540.740    154389.9634    145376.00
    2542.366    153430.2609    144353.00
    2544.012    151729.0587    140880.00
    2545.677    154659.7909    142769.00
    2547.360    156862.9856    143955.00
    2549.063    156910.0983    142730.00
    2550.785    158098.8500    142930.00
    2552.526    156580.1842    141706.00
    2554.285    155651.6621    141287.00
    2556.064    153503.2521    139764.00
    2557.861    152579.8325    140308.00
    2559.678    151098.6589    139322.00
    2561.514    149031.1217    137978.00
    2563.369    147342.1745    136129.00
    2565.243    146399.3225    134339.00
    2567.136    143435.0992    131805.00
    2569.049    139514.4412    127832.00
    2570.979    132812.0428    121885.00
    2572.929    136532.1761    124725.00
    2574.898    136138.2433    123106.00
    2576.886    134515.6762    120936.00
    2578.893    134582.4638    120244.00
    2580.919    135475.5321    119433.00
    2582.964    135719.9741    119142.00
    2585.028    135014.9080    117981.00
    2587.111    134834.0503    117238.00
    2589.213    133879.0744    114917.00
    2591.334    131516.9630    111767.00
    2593.475    129325.4344    108905.00
    2595.633    127497.8203    106407.00
    2597.812    119006.2030     98251.00
    2600.009    108494.8333     89286.00
    2602.225    113730.4395     92447.00
    2604.461    112916.2789     91062.00
    2606.715    107617.4024     86281.00
    2608.989    108595.9627     86534.00
    2611.281    111205.2724     87416.00
    2613.592    105273.4196     82329.00
    2615.923    103102.7907     79917.00
    2618.272    102308.3949     78188.00
    2620.640    100869.7226     76903.00
    2623.027     97427.6282     74460.00
    2625.434     94570.1599     72203.00
    2627.860     84060.7159     64425.00
    2630.304     68201.3195     51716.00
    2632.767     66051.1544     49992.00
    2635.251     69080.4082     51928.00
    2637.752     64287.4503     47696.00
    2640.272     60099.2857     44464.00
    2642.812     56662.1313     41537.00
    2645.371     51822.1490     38181.00
    2647.949     50682.0320     36883.00
    2650.545     45576.6547     33142.00
    2653.161     39891.0503     28792.00
    2655.795     32977.1290     23652.00
    2658.449     27243.8672     19092.00
    2661.122     21790.0940     15325.00
    2663.814     15712.0687     11010.00
    2666.524     14097.3123      9685.00
    2669.255     14000.3866      9532.00
    2672.002     12267.3477      8380.00
