#XDI/1.1  GSE/1.0
# Column.1: energy eV
# Column.2: ifluor
# Column.3: i0
# Scan.end_time: 2013-10-16 16:34:46
# Scan.start_time: 2013-10-16 16:23:32
# Element.symbol:  S
# Element.edge:  K
# Mono.d_spacing:  3.13477
# Mono.name: Si 111
# Sample.formula: S
# Sample.name: elemental sulfur
# Sample.prep: powder on halogen-free tape
# Sample.temperature: room temperature
# Facility.Name:  APS
# Beamline.Name:  13-ID-E
# Beamline.xray_source:  3.6cm undulator
# Beamline.I0: He,  20 cm
# Beamline.If: 4-element SDD (Vortex ME-4)
# ScanParameters.ScanType: xafs
# ScanParameters.E0: 2472.000
# ScanParameters.Start: Scan.Member: Value
# ScanParameters.E0: 2472.00
# ScanParameters.Legend: Start       Stop       Step       Npts       Time   Kspace?
# ScanParameters.Region1: 2450.0     2467.0     1.0000     18.000     2.0000   0
# ScanParameters.Region2: 2467.0     2485.0    0.10000     181.00     2.0000   0
# ScanParameters.Region3: 2485.0     2520.0    0.50000     71.000     2.0000   0
#-------------------------
#  energy  ifluor  i0
    2450.000      6865.4573    230463.00
    2451.001      6764.2932    229889.00
    2452.000      6819.3236    228942.00
    2453.000      7001.9370    230673.00
    2454.000      6980.2104    228335.00
    2455.000      6968.1529    227574.00
    2456.000      6732.0331    226127.00
    2456.999      6781.7177    224213.00
    2458.000      6681.2019    221694.00
    2459.001      6756.5877    223196.00
    2460.000      7097.2051    222769.00
    2460.999      6890.0887    219257.00
    2462.000      7119.2115    221279.00
    2463.000      7233.8281    219236.00
    2464.000      7302.7938    215916.00
    2465.001      7976.2559    218450.00
    2466.000      8473.4384    216574.00
    2467.000      9327.5654    215915.00
    2467.100      9469.9813    215328.00
    2467.201      9539.9860    214931.00
    2467.300      9667.0852    215039.00
    2467.400      9884.1917    215682.00
    2467.500      9818.9498    214940.00
    2467.601     10181.6672    214136.00
    2467.700     10223.9766    214241.00
    2467.800     10055.0178    213946.00
    2467.901     10565.7105    213882.00
    2468.000     10644.0969    213289.00
    2468.100     10800.7233    214955.00
    2468.201     11137.7764    215280.00
    2468.301     11122.5641    214489.00
    2468.399     11733.7251    215920.00
    2468.500     11865.0357    214860.00
    2468.601     12327.2958    215414.00
    2468.701     12619.6045    214466.00
    2468.799     12651.4114    214512.00
    2468.900     13028.8102    215240.00
    2469.000     13569.3763    214393.00
    2469.100     13821.5552    215049.00
    2469.200     14351.8309    215847.00
    2469.301     14884.6267    215028.00
    2469.400     15277.2670    215620.00
    2469.500     15641.1288    214586.00
    2469.601     16412.5203    214917.00
    2469.701     16889.2536    213237.00
    2469.800     17458.2387    215754.00
    2469.899     18329.6215    216040.00
    2470.000     18926.1710    214588.00
    2470.100     20018.9883    215838.00
    2470.201     20643.9941    215764.00
    2470.300     21636.6484    215410.00
    2470.400     22714.8627    215386.00
    2470.501     23850.0626    215513.00
    2470.601     24753.0246    215266.00
    2470.701     25277.5476    214847.00
    2470.800     26045.7695    214852.00
    2470.900     26919.9988    215759.00
    2471.000     28113.8925    216055.00
    2471.100     28240.0881    215336.00
    2471.200     28758.5635    215475.00
    2471.300     29176.2046    214613.00
    2471.400     29437.2181    216565.00
    2471.501     29604.7172    216075.00
    2471.600     29532.9204    215153.00
    2471.701     29792.7574    215609.00
    2471.800     29711.9310    215766.00
    2471.900     29775.8519    215768.00
    2472.000     29309.2121    216033.00
    2472.101     29730.4327    215377.00
    2472.200     29160.8694    215338.00
    2472.301     28941.8977    215043.00
    2472.400     28955.0166    216078.00
    2472.500     29012.0591    216203.00
    2472.600     28476.5053    214827.00
    2472.701     28513.6050    214979.00
    2472.800     28418.3161    215027.00
    2472.900     28092.6656    215130.00
    2473.000     28575.5162    215630.00
    2473.100     27761.2302    214996.00
    2473.200     27730.8446    214504.00
    2473.300     27508.8055    214473.00
    2473.401     27397.8055    214414.00
    2473.500     27195.3125    214597.00
    2473.600     26833.8793    214043.00
    2473.700     26553.4881    213237.00
    2473.801     26463.1764    214791.00
    2473.900     26572.4415    213745.00
    2474.000     26133.9730    213851.00
    2474.100     25782.4369    214590.00
    2474.200     25362.8235    213179.00
    2474.300     25044.9171    214061.00
    2474.401     24635.7472    213194.00
    2474.501     24930.4838    214895.00
    2474.600     24975.0515    214254.00
    2474.700     24558.4127    215157.00
    2474.801     24207.0165    213815.00
    2474.900     24210.0984    214995.00
    2474.999     24191.0220    214365.00
    2475.100     23662.4201    214272.00
    2475.200     23599.5157    213492.00
    2475.300     23555.3096    214383.00
    2475.400     23264.4096    214376.00
    2475.500     22695.4552    214096.00
    2475.600     23027.5461    214622.00
    2475.700     22912.6250    214446.00
    2475.800     22339.6348    213387.00
    2475.900     22446.1369    213779.00
    2476.000     22150.9538    210871.00
    2476.100     22289.1288    212010.00
    2476.201     22726.1736    213728.00
    2476.300     22671.5525    213170.00
    2476.401     23068.8209    213713.00
    2476.501     23237.2086    212774.00
    2476.600     23251.0124    211949.00
    2476.700     23614.1407    212126.00
    2476.800     23127.8420    206004.00
    2476.900     24440.2248    215888.00
    2477.000     24420.8817    214454.00
    2477.100     24408.4222    212881.00
    2477.200     24782.1466    213587.00
    2477.300     24958.2761    212663.00
    2477.400     25199.2502    210841.00
    2477.500     21082.4462    176227.00
    2477.600     26163.1518    218275.00
    2477.700     25586.0507    214593.00
    2477.800     25768.8475    214250.00
    2477.900     26109.0172    214689.00
    2478.000     25900.8575    213330.00
    2478.101     26155.1246    212999.00
    2478.200     26098.0739    212051.00
    2478.300     26495.8173    214887.00
    2478.400     26629.8473    215087.00
    2478.501     26171.0166    213785.00
    2478.600     26148.7097    213609.00
    2478.700     26575.9228    212839.00
    2478.801     26350.5112    213687.00
    2478.900     26207.9378    213387.00
    2479.002     26609.1881    214021.00
    2479.099     26216.3626    213544.00
    2479.200     26438.9363    213046.00
    2479.301     26175.0555    212926.00
    2479.400     26048.9870    213174.00
    2479.500     26227.1324    212104.00
    2479.601     26367.9653    213409.00
    2479.700     26500.7578    213156.00
    2479.800     26304.8760    212360.00
    2479.900     26012.7241    213136.00
    2480.000     25982.8720    212152.00
    2480.100     26044.4651    212644.00
    2480.200     26037.0460    212189.00
    2480.300     26041.2653    211488.00
    2480.400     26000.1524    212762.00
    2480.500     26033.0536    212359.00
    2480.600     25672.3891    212254.00
    2480.700     25579.4893    211948.00
    2480.801     25672.0782    212144.00
    2480.900     25341.7514    212326.00
    2481.000     25468.4516    210835.00
    2481.100     25459.6006    210591.00
    2481.200     25422.8240    212679.00
    2481.300     25503.4017    212921.00
    2481.400     25346.5751    212912.00
    2481.500     25336.8435    212748.00
    2481.600     25342.4890    212601.00
    2481.701     24858.9420    212002.00
    2481.800     25215.6988    212147.00
    2481.900     25024.3962    212330.00
    2482.000     25173.9908    212142.00
    2482.100     25171.5386    211011.00
    2482.200     25008.0411    211181.00
    2482.300     25022.1396    212044.00
    2482.400     24725.7478    211760.00
    2482.501     25108.7623    211959.00
    2482.600     24877.2339    210672.00
    2482.701     25100.2846    211916.00
    2482.801     24860.3849    210854.00
    2482.900     24732.0376    210874.00
    2483.000     25351.8042    211339.00
    2483.100     25002.6595    210477.00
    2483.200     25488.5797    211734.00
    2483.300     24489.2380    210222.00
    2483.400     25575.8965    211571.00
    2483.500     24991.5120    210714.00
    2483.601     25190.4003    211649.00
    2483.699     25150.5639    211667.00
    2483.801     25270.9210    210974.00
    2483.900     24890.2317    210578.00
    2484.000     25528.2500    210477.00
    2484.100     25405.1752    210925.00
    2484.200     25609.1554    210872.00
    2484.300     25206.4749    210828.00
    2484.401     25386.3091    211662.00
    2484.500     25461.4011    210377.00
    2484.600     25633.2776    211026.00
    2484.700     25365.6516    209925.00
    2484.800     25494.4519    211440.00
    2484.900     25421.9746    209847.00
    2485.000     25484.0742    210942.00
    2485.500     25581.6429    210285.00
    2486.000     25406.3822    209460.00
    2486.500     25369.2417    209841.00
    2487.000     24966.8271    207534.00
    2487.500     25648.5559    209273.00
    2488.000     25565.2185    209484.00
    2488.500     25501.1888    208503.00
    2488.999     25541.5009    209080.00
    2489.500     25843.3056    208408.00
    2490.001     25787.2648    209374.00
    2490.501     25750.6412    210949.00
    2491.000     25592.7279    209830.00
    2491.500     25501.3306    208745.00
    2492.000     25843.4670    210924.00
    2492.499     25743.9801    212049.00
    2493.001     25750.3756    212691.00
    2493.500     25633.8280    211789.00
    2494.000     26064.5061    214259.00
    2494.500     25922.2852    212962.00
    2495.000     25427.6758    212377.00
    2495.500     26335.2573    217176.00
    2496.000     26159.9236    215806.00
    2496.501     26842.0311    218346.00
    2497.000     26782.8519    219714.00
    2497.500     26859.1621    220903.00
    2498.000     27460.7139    222909.00
    2498.499     27062.1417    223088.00
    2499.000     27957.4964    224192.00
    2499.500     27203.4632    224422.00
    2500.000     27168.9713    223939.00
    2500.500     27058.5765    223880.00
    2501.001     27625.9055    227510.00
    2501.500     27595.9367    226417.00
    2502.000     28248.9532    227419.00
    2502.501     28171.6494    226998.00
    2503.000     28204.6493    227793.00
    2503.500     28084.1592    227443.00
    2504.000     27935.7401    227062.00
    2504.499     28024.5565    227824.00
    2505.001     28235.4512    228573.00
    2505.500     28406.2405    228937.00
    2506.000     28340.6718    228448.00
    2506.500     28320.9313    228973.00
    2507.000     28706.9107    229969.00
    2507.500     28600.1691    229011.00
    2508.000     28364.0400    229505.00
    2508.500     28727.8194    230648.00
    2509.000     29382.9112    231004.00
    2509.500     28891.7011    231041.00
    2510.000     29168.2580    232465.00
    2510.501     29214.7118    232521.00
    2511.001     29106.0984    232823.00
    2511.500     29340.0824    232921.00
    2512.000     29470.7378    232187.00
    2512.500     29663.6990    232916.00
    2513.001     29590.9689    231899.00
    2513.500     29425.8185    233177.00
    2514.000     29681.1350    233562.00
    2514.500     29168.3016    233653.00
    2515.000     29435.2508    234351.00
    2515.500     29393.8789    233605.00
    2516.000     29527.5501    233414.00
    2516.501     29655.9260    234479.00
    2517.000     29858.9099    234301.00
    2517.500     29977.9785    237310.00
    2518.000     29828.9793    236425.00
    2518.500     30462.8171    237986.00
    2519.000     30532.8164    239297.00
    2519.501     30527.4885    238830.00
    2520.000     30534.8875    239847.00
