#XDI/1.1  GSE/1.0
# Column.1: energy eV
# Column.2: ifluor
# Column.3: i0
# Scan.end_time: 2014-03-07 11:37:56
# Scan.start_time: 2014-03-07 11:31:24
# Element.symbol:  S
# Element.edge:  K
# Mono.d_spacing:  3.13477
# Mono.name: Si 111
# Sample.formula: scotch tape
# Sample.name: scotch tape
# Sample.prep: magic tape, glue-side to beam
# Sample.temperature: room temperature
# Facility.Name:  APS
# Beamline.Name:  13-ID-E
# Beamline.xray_source:  3.6cm undulator
# Beamline.I0: He,  20 cm
# Beamline.If: 4-element SDD (Vortex ME-4)
# ScanParameters.ScanType: xafs
# ScanParameters.E0: 2472.000
# ScanParameters.Start: Scan.Member: Value
# ScanParameters.E0: 2472.00
# ScanParameters.Legend: Start       Stop       Step       Npts       Time   Kspace?
# ScanParameters.Region1: -20.000    -5.0000     2.5000     7.0000     1.0000   0
# ScanParameters.Region2: -5.0000     20.000    0.20000     126.00     1.0000   0
# ScanParameters.Region3: 20.000     120.00     1.0000     101.00     1.0000   0
#-------------------------
#  energy  ifluor  i0
    2452.000       540.1858     37550.00
    2454.500       733.9179     45299.00
    2457.000       661.5941     46538.00
    2459.501       718.2683     47294.00
    2462.000       740.9654     48691.00
    2464.500       766.9670     49473.00
    2467.000       755.7095     50172.00
    2467.200       836.3006     48820.00
    2467.400       724.5808     48333.00
    2467.600       818.7814     48503.00
    2467.801       840.3963     48431.00
    2468.000       775.2203     48759.00
    2468.201       791.7268     48934.00
    2468.401       789.4997     49010.00
    2468.600       837.2264     49031.00
    2468.801       816.9489     48833.00
    2469.000       805.2046     48645.00
    2469.200       741.4927     48126.00
    2469.401       720.1743     47536.00
    2469.600       775.0570     47736.00
    2469.801       815.9248     47821.00
    2470.000       813.3466     47702.00
    2470.200       846.1447     47782.00
    2470.400       829.9161     47904.00
    2470.600       862.7691     46900.00
    2470.801       866.1231     47166.00
    2471.000       838.9020     46783.00
    2471.200       924.7004     46836.00
    2471.400      1004.1363     46899.00
    2471.601      1076.4878     46841.00
    2471.801      1262.1330     47185.00
    2472.000      1558.5612     47408.00
    2472.200      1882.1247     47057.00
    2472.400      2122.0390     46416.00
    2472.600      2465.2542     46590.00
    2472.801      2622.6807     46593.00
    2473.000      2637.4544     46258.00
    2473.200      2550.6850     46730.00
    2473.400      2427.0104     46338.00
    2473.600      2306.5334     45768.00
    2473.800      2142.3794     46431.00
    2474.000      2006.9387     46755.00
    2474.200      1829.5826     45867.00
    2474.400      1751.5977     45685.00
    2474.601      1760.3678     45981.00
    2474.801      1747.7192     45603.00
    2475.000      1664.8594     45919.00
    2475.201      1686.8194     45926.00
    2475.400      1762.6865     46144.00
    2475.600      1729.4012     45464.00
    2475.800      1700.0880     45391.00
    2476.000      1814.5472     45487.00
    2476.200      1564.6744     37613.00
    2476.399      1775.4073     41643.00
    2476.600      1859.6118     44903.00
    2476.800      1844.7378     45980.00
    2477.000      1991.6972     45417.00
    2477.200      1927.4006     46166.00
    2477.400      1913.6519     46233.00
    2477.600      1484.5911     34557.00
    2477.800      1907.8621     41405.00
    2478.000      2090.7294     45236.00
    2478.200      2201.6968     46271.00
    2478.399      2241.9888     46397.00
    2478.600      1561.6476     31588.00
    2478.801      2201.2208     41061.00
    2479.000      2561.1634     46070.00
    2479.200      2745.8068     47092.00
    2479.400      3168.6312     47636.00
    2479.601      3487.1542     47915.00
    2479.801      3809.8537     47759.00
    2480.000      4550.5380     48125.00
    2480.200      4791.6328     48155.00
    2480.400      5190.6705     48180.00
    2480.600      5498.4102     48856.00
    2480.800      5956.2601     48998.00
    2481.000      6018.5778     48439.00
    2481.200      6387.2905     48941.00
    2481.400      6889.3689     49435.00
    2481.601      7347.1138     49238.00
    2481.800      7977.9862     49272.00
    2482.000      8633.9997     49269.00
    2482.201      8472.2096     49623.00
    2482.400      7970.0522     49817.00
    2482.601      7095.1791     50258.00
    2482.800      6271.2178     50158.00
    2483.000      5342.0745     50269.00
    2483.201      4573.2343     50879.00
    2483.400      4171.4052     50609.00
    2483.601      3705.3840     50608.00
    2483.801      3448.4103     51281.00
    2484.000      3282.2386     51751.00
    2484.200      3186.5113     51737.00
    2484.400      3047.4183     51795.00
    2484.600      3030.3005     51946.00
    2484.800      2851.9671     51987.00
    2485.001      3078.4636     52246.00
    2485.200      2851.3444     52362.00
    2485.400      3049.6616     52642.00
    2485.600      2971.9250     52724.00
    2485.800      3049.0156     53270.00
    2486.000      3029.0858     52942.00
    2486.200      3006.1178     52814.00
    2486.400      3118.7270     53590.00
    2486.600      3115.5293     53791.00
    2486.800      3049.6251     53822.00
    2487.000      3063.2268     53958.00
    2487.200      3091.0296     54468.00
    2487.400      3171.4059     54695.00
    2487.600      3091.5520     54701.00
    2487.800      3045.2529     54914.00
    2488.000      3128.7532     55131.00
    2488.200      3065.6111     55380.00
    2488.400      3092.5165     55371.00
    2488.601      3079.4261     55563.00
    2488.801      3122.6682     55626.00
    2489.000      3125.3334     55572.00
    2489.199      3026.7981     55537.00
    2489.399      3064.8568     55675.00
    2489.600      3132.4918     55613.00
    2489.801      3074.8094     56065.00
    2490.000      3160.6289     56009.00
    2490.200      3155.8079     56369.00
    2490.400      3154.8264     56852.00
    2490.600      3241.6655     56402.00
    2490.800      3165.2584     56499.00
    2491.000      3262.0862     56851.00
    2491.201      3257.7371     56640.00
    2491.400      3178.8653     56021.00
    2491.600      3189.1587     55881.00
    2491.800      3331.6160     56340.00
    2492.001      3282.1940     56351.00
    2493.000      3391.7453     56307.00
    2494.000      3532.7545     56606.00
    2495.000      3635.2777     56562.00
    2496.001      3651.4928     56171.00
    2497.000      3739.0654     56328.00
    2498.000      3668.8062     55648.00
    2499.000      3685.0601     54839.00
    2500.000      3464.5666     55328.00
    2501.000      3396.7640     55897.00
    2502.000      3372.1850     56043.00
    2503.000      3145.9306     56364.00
    2504.000      3180.7230     57308.00
    2505.000      3247.7237     57833.00
    2506.000      3081.6413     58368.00
    2507.000      3173.7388     58866.00
    2508.000      3015.5901     59573.00
    2509.000      3013.5406     59284.00
    2510.001      3216.3248     59933.00
    2511.000      3089.0758     60482.00
    2512.000      3199.4411     60965.00
    2513.000      3243.1987     61192.00
    2514.000      3223.1916     61579.00
    2515.000      3136.3600     61083.00
    2516.000      3093.6133     61041.00
    2517.000      3158.0220     60603.00
    2518.000      3146.5633     60692.00
    2519.000      3129.7068     60601.00
    2520.000      3186.2316     60670.00
    2521.000      3165.0178     60358.00
    2522.000      3129.7349     60106.00
    2523.000      3110.2949     59186.00
    2524.000      3053.1709     58688.00
    2525.001      3034.8635     58483.00
    2526.000      2880.5190     57665.00
    2527.000      3050.8544     57217.00
    2528.001      3049.7136     56946.00
    2529.000      2983.2542     56801.00
    2530.000      2967.1655     56788.00
    2531.000      3067.9264     57391.00
    2532.000      3064.1438     57840.00
    2533.000      3003.6769     58707.00
    2534.000      3130.2208     59478.00
    2535.000      3050.2830     59153.00
    2536.000      3151.5467     58758.00
    2537.000      3078.4678     59070.00
    2538.000      3258.1687     60864.00
    2539.000      3276.5268     61703.00
    2540.000      3270.7611     61595.00
    2541.000      3284.1431     61469.00
    2542.000      3212.0111     61532.00
    2543.000      3211.2206     61012.00
    2544.000      3169.6390     60407.00
    2545.000      3174.1566     59586.00
    2546.000      3168.5840     59302.00
    2547.000      3199.7159     58520.00
    2548.000      3020.1892     57121.00
    2549.000      3062.4754     56616.00
    2550.000      2852.3080     54525.00
    2551.000      2824.8330     52914.00
    2552.000      2692.0610     52196.00
    2553.000      2833.3791     51990.00
    2554.000      2850.5855     52299.00
    2555.000      2843.7047     52550.00
    2556.000      2722.5645     51953.00
    2557.000      2815.3336     51969.00
    2558.000      2864.9376     52317.00
    2559.000      2776.4327     52314.00
    2560.000      2757.7091     51693.00
    2561.000      2902.9131     50105.00
    2562.000      2718.5806     50520.00
    2563.001      2854.1482     51690.00
    2564.000      2870.9511     51851.00
    2565.000      2835.1056     51724.00
    2566.000      2826.8788     51275.00
    2567.000      2849.2715     50588.00
    2568.001      2844.4636     50176.00
    2569.000      2701.9171     49472.00
    2570.000      2711.0536     48584.00
    2571.000      2746.5674     48324.00
    2572.000      2626.2942     47973.00
    2573.000      2505.3637     46097.00
    2574.000      2364.2558     44844.00
    2575.000      2389.6974     43762.00
    2576.000      2403.4422     42633.00
    2577.000      2249.1767     41476.00
    2578.000      2227.5362     40879.00
    2579.000      2196.8080     39627.00
    2580.000      2198.4206     38765.00
    2581.000      2008.5583     37260.00
    2582.000      2082.6778     36778.00
    2583.000      2056.5539     37388.00
    2584.000      2155.2217     37355.00
    2585.000      2155.2446     37509.00
    2586.000      2030.0298     37093.00
    2587.000      2071.2581     36440.00
    2588.000      2028.2545     36458.00
    2589.000      1998.8459     36334.00
    2590.000      1886.4745     35325.00
    2591.000      1959.7133     35115.00
    2592.000      1858.7295     34441.00
