# XDI/1.0 GSE/1.0
# Column.1: energy eV
# Column.2: mutrans
# Column.3: i0
# Element.edge: K
# Element.symbol: Co
# Scan.edge_energy: 7709.0
# Mono.name: Si 111
# Mono.d_spacing: 3.13555
# Beamline.name: 13-ID-C
# Beamline.collimation: none
# Beamline.harmonic_rejection: detuned 
# Facility.name: APS
# Facility.energy: 7.00 GeV
# Facility.xray_source: APS undulator A
# Scan.start_time: 2001-06-26T21:21:20
# Detector.I0: 10cm  N2
# Detector.I1: 10cm  N2
# Sample.name: Co metal foil
# Sample.prep: standard foil (Joe Wong boxed set)
# ///
# room temperature
# measured at beamline 13-ID-C
# vert slits = 0.3 x 0.3mm (at ~50m)
#----
#   energy      mutrans          i0
  7509.0000      -0.51329170        165872.70
  7519.0000      -0.78493490        161255.70
  7529.0000      -0.79281251        132048.70
  7539.0000      -0.79845258        121655.70
  7549.0000      -0.80458247        117735.70
  7559.0000      -0.81016444        116106.70
  7569.0000      -0.81581403        116202.70
  7579.0000      -0.82160876        116268.70
  7589.0000      -0.82726997        115529.70
  7599.0000      -0.83255491        115659.70
  7609.0000      -0.83804077        116147.70
  7619.0000      -0.84352379        115955.70
  7629.0000      -0.84831253        115446.70
  7639.0000      -0.85363098        116035.70
  7649.0000      -0.85790738        116061.70
  7659.0000      -0.86252900        116763.70
  7669.0000      -0.86586746        116068.70
  7679.0000      -0.86778856        116381.70
  7689.0000      -0.86659606        116997.70
  7689.5000      -0.86634957        118154.70
  7690.0000      -0.86579612        119458.70
  7690.5000      -0.86527800        119759.70
  7691.0000      -0.86477373        119883.70
  7691.5000      -0.86440361        120264.70
  7692.0000      -0.86411777        120523.70
  7692.5000      -0.86377993        120487.70
  7693.0000      -0.86368318        120599.70
  7693.5000      -0.86277230        120611.70
  7694.0000      -0.86245909        120859.70
  7694.5000      -0.86200783        120517.70
  7695.0000      -0.86104701        120230.70
  7695.5000      -0.86018848        120629.70
  7696.0000      -0.85924969        120387.70
  7696.5000      -0.85832681        120190.70
  7697.0000      -0.85729183        120858.70
  7697.5000      -0.85614557        120664.70
  7698.0000      -0.85500099        120180.70
  7698.5000      -0.85381543        120584.70
  7699.0000      -0.85198657        120353.70
  7699.5000      -0.85048548        120515.70
  7700.0000      -0.84845656        120681.70
  7700.5000      -0.84653495        120748.70
  7701.0000      -0.84397498        120689.70
  7701.5000      -0.84113383        120621.70
  7702.0000      -0.83796317        120183.70
  7702.5000      -0.83449016        120131.70
  7703.0000      -0.83038114        120562.70
  7703.5000      -0.82527517        120706.70
  7704.0000      -0.81959570        120251.70
  7704.5000      -0.81235493        120725.70
  7705.0000      -0.80335793        120761.70
  7705.5000      -0.79135669        120567.70
  7706.0000      -0.77762984        120877.70
  7706.5000      -0.75546755        119952.70
  7707.0000      -0.71990056        120317.70
  7707.5000      -0.65863251        120045.70
  7708.0000      -0.55208104        121143.70
  7708.5000      -0.37416138        120563.70
  7709.0000      -0.18056016        121004.70
  7709.5000      -0.10499735E-01    120264.70
  7710.0000       0.14949984        120253.70
  7710.5000       0.28873168        120012.70
  7711.0000       0.39279680        120398.70
  7711.5000       0.47403268        120553.70
  7712.0000       0.53174148        120194.70
  7712.5000       0.56176953        120745.70
  7713.0000       0.57166443        120635.70
  7713.5000       0.57335135        121284.70
  7714.0000       0.58518201        120810.70
  7714.5000       0.62577758        120582.70
  7715.0000       0.70337099        120677.70
  7715.5000       0.81585250        121120.70
  7716.0000       0.93796235        120388.70
  7716.5000        1.0576677        120939.70
  7717.0000        1.1871899        120887.70
  7717.5000        1.3160734        120278.70
  7718.0000        1.4345021        120692.70
  7718.5000        1.5528916        120665.70
  7719.0000        1.6629276        120385.70
  7719.5000        1.7539380        120347.70
  7720.0000        1.8372340        120660.70
  7720.5000        1.9130882        120719.70
  7721.0000        1.9863553        120464.70
  7721.5000        2.0716116        120612.70
  7722.0000        2.1678802        120023.70
  7722.5000        2.2638182        120478.70
  7723.0000        2.3664233        119959.70
  7723.5000        2.4674403        120517.70
  7724.0000        2.5505155        121167.70
  7724.5000        2.6304631        120689.70
  7725.0000        2.6959622        120693.70
  7725.5000        2.7551116        120862.70
  7726.0000        2.8071130        120821.70
  7726.5000        2.8525868        120289.70
  7727.0000        2.8961058        120661.70
  7727.5000        2.9346612        120418.70
  7728.0000        2.9655201        120505.70
  7728.5000        2.9888657        120213.70
  7729.0000        3.0031975        120699.70
  7729.5000        3.0121783        120080.70
  7730.0000        3.0169304        120080.70
  7730.5000        3.0227229        120305.70
  7731.0000        3.0284305        120477.70
  7731.5000        3.0351356        120601.70
  7732.0000        3.0397170        120904.70
  7732.5000        3.0488024        120257.70
  7733.0000        3.0509433        120557.70
  7733.5000        3.0454811        120636.70
  7734.0000        3.0355925        120781.70
  7734.9850        3.0027285        120441.70
  7735.9880        2.9627386        120596.70
  7737.0110        2.9175331        120574.70
  7738.0530        2.8852466        120486.70
  7739.1140        2.8539284        120329.70
  7740.1940        2.8257750        120009.70
  7741.2920        2.8060303        120409.70
  7742.4110        2.7910559        120184.70
  7743.5470        2.7790783        120444.70
  7744.7030        2.7803425        120419.70
  7745.8780        2.7925360        119905.70
  7747.0720        2.8185333        120500.70
  7748.2850        2.8609854        119678.70
  7749.5170        2.9079656        120177.70
  7750.7690        2.9685385        120227.70
  7752.0390        3.0347369        120241.70
  7753.3280        3.1033724        116979.70
  7754.6360        3.1677990        119300.70
  7755.9630        3.2232271        123036.70
  7757.3090        3.2618008        122003.70
  7758.6740        3.2774147        120583.70
  7760.0580        3.2710815        120928.70
  7761.4610        3.2329365        120839.70
  7762.8840        3.1582649        120168.70
  7764.3250        3.0776268        120279.70
  7765.7850        2.9831908        119987.70
  7767.2650        2.8817081        120453.70
  7768.7630        2.7916503        120549.70
  7770.2800        2.7311276        120684.70
  7771.8160        2.6868712        120570.70
  7773.3720        2.6565240        120086.70
  7774.9460        2.6319983        120652.70
  7776.5400        2.6108283        120207.70
  7778.1520        2.5972418        120478.70
  7779.7840        2.6001501        120398.70
  7781.4340        2.6193283        120286.70
  7783.1040        2.6551668        119852.70
  7784.7920        2.6919357        119839.70
  7786.5000        2.7350633        119850.70
  7788.2260        2.7799219        120046.70
  7789.9720        2.8226448        120004.70
  7791.7360        2.8517435        120482.70
  7793.5200        2.8737266        120593.70
  7795.3230        2.9029479        119776.70
  7797.1450        2.9486272        119822.70
  7798.9850        3.0092571        120196.70
  7800.8450        3.0794349        120040.70
  7802.7240        3.1554768        120115.70
  7804.6210        3.2151133        120647.70
  7806.5380        3.2505996        119586.70
  7808.4740        3.2434824        120429.70
  7810.4290        3.2098917        120093.70
  7812.4020        3.1655700        120338.70
  7814.3960        3.1202844        120356.70
  7816.4070        3.0624774        120181.70
  7818.4380        2.9857528        120275.70
  7820.4880        2.9101885        120371.70
  7822.5570        2.8341296        120114.70
  7824.6450        2.7517329        120470.70
  7826.7520        2.6745641        119777.70
  7828.8780        2.6108610        120034.70
  7831.0230        2.5606287        119305.70
  7833.1880        2.5303158        120163.70
  7835.3700        2.5210749        120277.70
  7837.5720        2.5315740        120352.70
  7839.7930        2.5454743        119882.70
  7842.0340        2.5598704        119719.70
  7844.2930        2.5727743        119623.70
  7846.5710        2.5929496        119962.70
  7848.8680        2.6154542        120026.70
  7851.1850        2.6417459        120037.70
  7853.5200        2.6689787        119759.70
  7855.8740        2.7065557        119552.70
  7858.2480        2.7625007        119921.70
  7860.6400        2.8292902        120076.70
  7863.0510        2.9019680        119859.70
  7865.4810        2.9677909        120001.70
  7867.9310        3.0313862        120502.70
  7870.3990        3.0800922        119749.70
  7872.8870        3.1125009        119760.70
  7875.3930        3.1205738        118850.70
  7877.9180        3.1014073        120595.70
  7880.4630        3.0520491        119971.70
  7883.0260        2.9754575        120219.70
  7885.6090        2.8763040        120567.70
  7888.2100        2.7709806        119233.70
  7890.8310        2.6550497        119525.70
  7893.4710        2.5470330        119737.70
  7896.1290        2.4659329        119629.70
  7898.8070        2.4240461        117759.70
  7901.5040        2.4199719        120294.70
  7904.2190        2.4455932        120197.70
  7906.9540        2.4804503        119897.70
  7909.7080        2.5159306        120254.70
  7912.4800        2.5467886        119912.70
  7915.2720        2.5656371        119852.70
  7918.0830        2.5762845        119544.70
  7920.9130        2.5818778        118694.70
  7923.7620        2.5812447        119121.70
  7926.6290        2.5849467        119775.70
  7929.5170        2.5831505        120222.70
  7932.4220        2.5840547        120291.70
  7935.3470        2.5842118        120787.70
  7938.2910        2.5928212        119452.70
  7941.2540        2.6072896        119918.70
  7944.2360        2.6342455        119976.70
  7947.2370        2.6768577        119485.70
  7950.2570        2.7116197        119331.70
  7953.2960        2.7420532        119713.70
  7956.3540        2.7593238        119288.70
  7959.4310        2.7558077        119892.70
  7962.5270        2.7319433        119661.70
  7965.6430        2.6807144        119684.70
  7968.7770        2.6267060        119545.70
  7971.9300        2.5641404        119361.70
  7975.1020        2.5076163        119111.70
  7978.2930        2.4640529        120321.70
  7981.5030        2.4405113        119978.70
  7984.7330        2.4186898        119466.70
  7987.9810        2.3883623        120310.70
  7991.2490        2.3658246        120292.70
  7994.5350        2.3528926        119146.70
  7997.8400        2.3407625        119112.70
  8001.1650        2.3374495        119505.70
  8004.5080        2.3494342        119070.70
  8007.8700        2.3610340        119134.70
  8011.2520        2.3767802        119280.70
  8014.6520        2.3840875        120285.70
  8018.0720        2.4047432        119362.70
  8021.5100        2.4140176        119714.70
  8024.9680        2.4189345        119484.70
  8028.4440        2.4209683        118883.70
  8031.9400        2.4291241        119936.70
  8035.4540        2.4391657        119553.70
  8038.9880        2.4479252        120096.70
  8042.5410        2.4532724        119368.70
  8046.1120        2.4536177        119479.70
  8049.7030        2.4485064        119217.70
  8053.3130        2.4314464        120795.70
  8056.9410        2.4178961        119865.70
  8060.5890        2.3910057        119536.70
  8064.2560        2.3616528        119526.70
  8067.9410        2.3370290        119196.70
  8071.6460        2.3181232        119645.70
  8075.3700        2.3042536        119189.70
  8079.1130        2.2858312        119993.70
  8082.8750        2.2740387        119218.70
  8086.6560        2.2517662        119643.70
  8090.4560        2.2303590        119779.70
  8094.2740        2.2181763        119312.70
  8098.1120        2.2083975        119325.70
  8101.9690        2.1983195        119525.70
  8105.8460        2.1883800        120466.70
  8109.7400        2.1922395        118899.70
  8113.6540        2.1941901        119508.70
  8117.5870        2.1965644        119927.70
  8121.5400        2.2027328        119022.70
  8125.5110        2.2093666        119632.70
  8129.5010        2.2126351        119000.70
  8133.5100        2.2106278        119710.70
  8137.5380        2.2116790        119215.70
  8141.5850        2.2109215        118924.70
  8145.6510        2.2090459        119794.70
  8149.7370        2.2078490        120342.70
  8153.8410        2.2032773        119612.70
  8157.9640        2.1931849        119370.70
  8162.1060        2.1764905        119051.70
  8166.2680        2.1641791        120520.70
  8170.4480        2.1492998        120044.70
  8174.6470        2.1354252        119879.70
  8178.8660        2.1243451        119445.70
  8183.1030        2.1165597        119598.70
  8187.3600        2.1079935        120323.70
  8191.6350        2.0966955        118198.70
  8195.9300        2.0873400        119976.70
  8200.2430        2.0770505        119929.70
  8204.5750        2.0635610        119826.70
  8208.9270        2.0470605        120266.70
  8213.2980        2.0406491        119128.70
  8217.6880        2.0285643        119575.70
  8222.0960        2.0171798        119582.70
  8226.5230        2.0082820        118478.70
  8230.9700        2.0035538        119113.70
  8235.4360        1.9998732        119791.70
  8239.9200        1.9961061        120452.70
  8244.4240        1.9958146        119166.70
  8248.9460        1.9971329        119139.70
  8253.4880        1.9975756        119435.70
  8258.0490        1.9982011        119613.70
  8262.6290        1.9989199        119699.70
  8267.2280        1.9950853        119285.70
  8271.8460        1.9881969        119598.70
  8276.4820        1.9807009        119850.70
  8281.1390        1.9711645        119495.70
  8285.8130        1.9610646        119147.70
  8290.5070        1.9461931        120168.70
  8295.2200        1.9379922        119506.70
  8299.9520        1.9274241        118930.70
  8304.7030        1.9167866        118943.70
  8309.4730        1.9069495        119482.70
  8314.2620        1.8985043        119058.70
  8319.0700        1.8891892        118847.70
  8323.8960        1.8750725        119157.70
  8328.7430        1.8710702        117382.70
  8333.6080        1.8539952        96788.700
  8338.4920        1.8465297        139070.70
  8343.3960        1.8462488        128906.70
  8348.3170        1.8425086        123640.70
  8353.2590        1.8371417        121779.70
  8358.2190        1.8274280        119837.70
  8363.1980        1.8250590        119479.70
  8368.1960        1.8185443        119227.70
  8373.2140        1.8120559        119356.70
  8378.2500        1.8058158        119794.70
  8383.3060        1.8021173        118988.70
  8388.3800        1.7948084        118615.70
  8393.4730        1.7846518        119710.70
  8398.5850        1.7853909        119566.70
  8403.7170        1.7795378        119129.70
  8408.8670        1.7728117        116888.70
  8414.0370        1.7620058        120291.70
  8419.2250        1.7596864        119071.70
  8424.4330        1.7514051        119449.70
  8429.6590        1.7392103        119339.70
  8434.9040        1.7304294        119255.70
  8440.1690        1.7252660        118551.70
  8445.4530        1.7174160        118894.70
  8450.7560        1.7053437        119487.70
  8456.0770        1.6974039        119159.70
  8461.4180        1.6892286        119039.70
  8466.7770        1.6777290        119830.70
  8472.1560        1.6681520        119690.70
  8477.5540        1.6661827        119010.70
  8482.9710        1.6579148        119127.70
  8488.4060        1.6483207        119601.70
  8493.8610        1.6425272        119184.70
  8499.3350        1.6346942        118572.70
  8504.8270        1.6242764        119302.70
  8510.3390        1.6165399        119148.70
  8515.8700        1.6133978        119733.70
  8521.4200        1.6080465        119793.70
  8526.9880        1.5989608        119803.70
  8532.5770        1.5957019        119645.70
  8538.1840        1.5858048        119458.70
  8543.8100        1.5794361        119311.70
  8549.4540        1.5701074        120251.70
  8555.1180        1.5669902        119594.70
  8560.8020        1.5601268        119290.70
  8566.5040        1.5522633        119777.70
  8572.2250        1.5381771        117636.70
  8577.9650        1.5396942        119955.70
  8583.7240        1.5333601        120078.70
  8589.5020        1.5184190        119370.70
  8595.2990        1.5152312        119659.70
  8601.1150        1.5074002        119448.70
  8606.9500        1.4989775        119843.70
  8612.8050        1.4894177        120042.70
  8618.6780        1.4845288        119130.70
  8624.5700        1.4746481        119606.70
  8630.4810        1.4668072        119708.70
  8636.4120        1.4620773        119251.70
  8642.3610        1.4501283        119459.70
  8648.3290        1.4450713        119077.70
  8654.3160        1.4356125        120263.70
  8660.3230        1.4300189        118957.70
  8666.3490        1.4193385        119901.70
  8672.3930        1.4136596        119851.70
  8678.4560        1.4051793        118843.70
  8684.5390        1.4005755        120545.70
  8690.6410        1.3939391        119530.70
  8696.7610        1.3853862        119631.70
  8702.9000        1.3795366        119708.70
  8709.0590        1.3718255        119506.70
  8715.2360        1.3626489        119934.70
  8721.4340        1.3540086        119487.70
  8727.6480        1.3472667        119165.70
  8733.8830        1.3418228        119838.70
  8740.1370        1.3204857        101241.70
  8746.4100        1.3187426        131195.70
  8752.7010        1.3149492        125320.70
  8759.0120        1.3081044        122856.70
  8765.3420        1.3022560        120709.70
  8771.6900        1.2946534        118813.70
  8778.0590        1.2886248        120856.70
  8784.4450        1.2804564        118653.70
  8790.8510        1.2702641        119797.70
  8797.2750        1.2644396        118733.70
  8803.7200        1.2534702        119301.70
  8810.1830        1.2469065        118009.70
  8816.6640        1.2398679        119593.70
  8823.1660        1.2328298        118816.70
  8829.6860        1.2245545        119875.70
  8836.2250        1.2169206        118754.70
  8842.7820        1.2097259        119589.70
  8849.3590        1.2027500        120116.70
  8855.9550        1.1951840        119508.70
  8862.5700        1.1891414        118857.70
  8869.2050        1.1809105        120228.70
  8875.8570        1.1738839        119053.70
  8882.5300        1.1659388        119311.70
  8889.2210        1.1594767        119432.70
  8895.9320        1.1519129        119899.70
  8902.6600        1.1445216        119104.70
  8909.4080        1.1372259        119632.70
  8916.1760        1.1302525        118940.70
  8922.9620        1.1230335        120138.70
  8929.7680        1.1156450        120401.70
  8936.5920        1.1082087        119721.70
  8943.4350        1.1013996        120500.70
